14.180000	6.743642e-06	5.464402e-05	4.736633e-06	1.662415e-05	
14.181001	6.775825e-06	5.586395e-05	4.771927e-06	1.685261e-05	
14.182002	6.806432e-06	5.710135e-05	4.810835e-06	1.709517e-05	
14.183002	6.835620e-06	5.835399e-05	4.853160e-06	1.735091e-05	
14.184003	6.863546e-06	5.961966e-05	4.898708e-06	1.761892e-05	
14.185004	6.890367e-06	6.089614e-05	4.947281e-06	1.789830e-05	
14.186005	6.916239e-06	6.218123e-05	4.998684e-06	1.818813e-05	
14.187006	6.941321e-06	6.347271e-05	5.052720e-06	1.848751e-05	
14.188007	6.965767e-06	6.476836e-05	5.109195e-06	1.879552e-05	
14.189007	6.989737e-06	6.606597e-05	5.167912e-06	1.911127e-05	
14.190008	7.013385e-06	6.736332e-05	5.228674e-06	1.943382e-05	
14.191009	7.036870e-06	6.865820e-05	5.291287e-06	1.976229e-05	
14.192010	7.060348e-06	6.994839e-05	5.355554e-06	2.009576e-05	
14.193011	7.083976e-06	7.123168e-05	5.421279e-06	2.043331e-05	
14.194011	7.107911e-06	7.250586e-05	5.488267e-06	2.077404e-05	
14.195012	7.132309e-06	7.376870e-05	5.556321e-06	2.111705e-05	
14.196013	7.157328e-06	7.501800e-05	5.625245e-06	2.146141e-05	
14.197014	7.183125e-06	7.625154e-05	5.694843e-06	2.180623e-05	
14.198015	7.209856e-06	7.746710e-05	5.764921e-06	2.215059e-05	
14.199015	7.237679e-06	7.866247e-05	5.835280e-06	2.249358e-05	
14.200016	7.266749e-06	7.983544e-05	5.905726e-06	2.283429e-05	
14.201017	7.297225e-06	8.098379e-05	5.976063e-06	2.317182e-05	
14.202018	7.329263e-06	8.210530e-05	6.046095e-06	2.350525e-05	
14.203019	7.363019e-06	8.319777e-05	6.115625e-06	2.383367e-05	
14.204020	7.398652e-06	8.425897e-05	6.184459e-06	2.415619e-05	
14.205020	7.436317e-06	8.528669e-05	6.252399e-06	2.447187e-05	
14.206021	7.476171e-06	8.627872e-05	6.319250e-06	2.477982e-05	
14.207022	7.518373e-06	8.723284e-05	6.384816e-06	2.507913e-05	
14.208023	7.563077e-06	8.814683e-05	6.448901e-06	2.536889e-05	
14.209024	7.610441e-06	8.901849e-05	6.511309e-06	2.564818e-05	
14.210024	7.660623e-06	8.984560e-05	6.571844e-06	2.591611e-05	
14.211025	7.713779e-06	9.062594e-05	6.630311e-06	2.617175e-05	
14.212026	7.770065e-06	9.135729e-05	6.686512e-06	2.641420e-05	
14.213027	7.829640e-06	9.203745e-05	6.740254e-06	2.664255e-05	
14.214028	7.892659e-06	9.266420e-05	6.791338e-06	2.685590e-05	
14.215028	7.959279e-06	9.323532e-05	6.839570e-06	2.705332e-05	
14.216029	8.029658e-06	9.374860e-05	6.884753e-06	2.723392e-05	
14.217030	8.103952e-06	9.420182e-05	6.926692e-06	2.739677e-05	
14.218031	8.182319e-06	9.459277e-05	6.965191e-06	2.754098e-05	
14.219032	8.264914e-06	9.491924e-05	7.000053e-06	2.766564e-05	
14.220033	8.351896e-06	9.517901e-05	7.031083e-06	2.776983e-05	
14.221033	8.443420e-06	9.536986e-05	7.058084e-06	2.785264e-05	
14.222034	8.539645e-06	9.548958e-05	7.080862e-06	2.791317e-05	
14.223035	8.640725e-06	9.553595e-05	7.099219e-06	2.795050e-05	
14.224036	8.746820e-06	9.550677e-05	7.112960e-06	2.796373e-05	
14.225037	8.858074e-06	9.539992e-05	7.121899e-06	2.795199e-05	
14.226037	8.974409e-06	9.521551e-05	7.126031e-06	2.791529e-05	
14.227038	9.095539e-06	9.495572e-05	7.125523e-06	2.785447e-05	
14.228039	9.221170e-06	9.462279e-05	7.120549e-06	2.777037e-05	
14.229040	9.351010e-06	9.421896e-05	7.111281e-06	2.766385e-05	
14.230041	9.484764e-06	9.374648e-05	7.097892e-06	2.753577e-05	
14.231041	9.622138e-06	9.320759e-05	7.080556e-06	2.738700e-05	
14.232042	9.762838e-06	9.260453e-05	7.059446e-06	2.721838e-05	
14.233043	9.906572e-06	9.193956e-05	7.034735e-06	2.703078e-05	
14.234044	1.005304e-05	9.121491e-05	7.006595e-06	2.682505e-05	
14.235045	1.020196e-05	9.043282e-05	6.975201e-06	2.660204e-05	
14.236046	1.035303e-05	8.959555e-05	6.940724e-06	2.636263e-05	
14.237046	1.050596e-05	8.870534e-05	6.903339e-06	2.610766e-05	
14.238047	1.066045e-05	8.776443e-05	6.863217e-06	2.583799e-05	
14.239048	1.081621e-05	8.677507e-05	6.820533e-06	2.555448e-05	
14.240049	1.097295e-05	8.573950e-05	6.775459e-06	2.525799e-05	
14.241050	1.113037e-05	8.465996e-05	6.728169e-06	2.494937e-05	
14.242050	1.128819e-05	8.353870e-05	6.678835e-06	2.462948e-05	
14.243051	1.144609e-05	8.237797e-05	6.627631e-06	2.429919e-05	
14.244052	1.160380e-05	8.118001e-05	6.574729e-06	2.395934e-05	
14.245053	1.176102e-05	7.994705e-05	6.520303e-06	2.361079e-05	
14.246054	1.191745e-05	7.868136e-05	6.464526e-06	2.325441e-05	
14.247055	1.207280e-05	7.738517e-05	6.407571e-06	2.289105e-05	
14.248055	1.222678e-05	7.606072e-05	6.349611e-06	2.252156e-05	
14.249056	1.237909e-05	7.471027e-05	6.290818e-06	2.214681e-05	
14.250057	1.252944e-05	7.333605e-05	6.231367e-06	2.176765e-05	
14.251058	1.267754e-05	7.194031e-05	6.171430e-06	2.138494e-05	
14.252059	1.282309e-05	7.052529e-05	6.111181e-06	2.099954e-05	
14.253059	1.296579e-05	6.909325e-05	6.050792e-06	2.061230e-05	
14.254060	1.310536e-05	6.764641e-05	5.990436e-06	2.022409e-05	
14.255061	1.324151e-05	6.618704e-05	5.930287e-06	1.983575e-05	
14.256062	1.337392e-05	6.471736e-05	5.870517e-06	1.944816e-05	
14.257063	1.350233e-05	6.323963e-05	5.811300e-06	1.906215e-05	
14.258063	1.362642e-05	6.175609e-05	5.752809e-06	1.867860e-05	
14.259064	1.374591e-05	6.026899e-05	5.695217e-06	1.829836e-05	
14.260065	1.386050e-05	5.878057e-05	5.638697e-06	1.792229e-05	
14.261066	1.396989e-05	5.729306e-05	5.583421e-06	1.755124e-05	
14.262067	1.407381e-05	5.580873e-05	5.529564e-06	1.718607e-05	
14.263068	1.417194e-05	5.432981e-05	5.477298e-06	1.682765e-05	
14.264068	1.426400e-05	5.285855e-05	5.426797e-06	1.647682e-05	
14.265069	1.434969e-05	5.139719e-05	5.378232e-06	1.613444e-05	
14.266070	1.442873e-05	4.994798e-05	5.331778e-06	1.580138e-05	
14.267071	1.450081e-05	4.851315e-05	5.287608e-06	1.547849e-05	
14.268072	1.456564e-05	4.709496e-05	5.245894e-06	1.516662e-05	
14.269072	1.462293e-05	4.569565e-05	5.206810e-06	1.486665e-05	
14.270073	1.467238e-05	4.431747e-05	5.170528e-06	1.457941e-05	
14.271074	1.471371e-05	4.296265e-05	5.137222e-06	1.430577e-05	
14.272075	1.474661e-05	4.163344e-05	5.107066e-06	1.404659e-05	
14.273076	1.477080e-05	4.033210e-05	5.080231e-06	1.380273e-05	
14.274076	1.478597e-05	3.906085e-05	5.056891e-06	1.357504e-05	
14.275077	1.479186e-05	3.782186e-05	5.037210e-06	1.336433e-05	
14.276078	1.478845e-05	3.661589e-05	5.021189e-06	1.317071e-05	
14.277079	1.477596e-05	3.544248e-05	5.008695e-06	1.299366e-05	
14.278080	1.475462e-05	3.430117e-05	4.999589e-06	1.283265e-05	
14.279081	1.472464e-05	3.319148e-05	4.993735e-06	1.268716e-05	
14.280081	1.468624e-05	3.211295e-05	4.990994e-06	1.255666e-05	
14.281082	1.463966e-05	3.106510e-05	4.991229e-06	1.244062e-05	
14.282083	1.458511e-05	3.004745e-05	4.994303e-06	1.233851e-05	
14.283084	1.452281e-05	2.905954e-05	5.000077e-06	1.224982e-05	
14.284085	1.445300e-05	2.810089e-05	5.008414e-06	1.217400e-05	
14.285085	1.437588e-05	2.717104e-05	5.019177e-06	1.211054e-05	
14.286086	1.429169e-05	2.626949e-05	5.032227e-06	1.205890e-05	
14.287087	1.420065e-05	2.539580e-05	5.047427e-06	1.201856e-05	
14.288088	1.410298e-05	2.454947e-05	5.064639e-06	1.198899e-05	
14.289089	1.399890e-05	2.373005e-05	5.083726e-06	1.196967e-05	
14.290090	1.388863e-05	2.293705e-05	5.104550e-06	1.196006e-05	
14.291090	1.377240e-05	2.217001e-05	5.126973e-06	1.195964e-05	
14.292091	1.365044e-05	2.142844e-05	5.150858e-06	1.196788e-05	
14.293092	1.352296e-05	2.071189e-05	5.176067e-06	1.198426e-05	
14.294093	1.339018e-05	2.001988e-05	5.202462e-06	1.200825e-05	
14.295094	1.325234e-05	1.935192e-05	5.229906e-06	1.203931e-05	
14.296094	1.310965e-05	1.870756e-05	5.258261e-06	1.207693e-05	
14.297095	1.296233e-05	1.808632e-05	5.287389e-06	1.212057e-05	
14.298096	1.281061e-05	1.748773e-05	5.317153e-06	1.216971e-05	
14.299097	1.265471e-05	1.691130e-05	5.347415e-06	1.222382e-05	
14.300098	1.249485e-05	1.635658e-05	5.378038e-06	1.228238e-05	
14.301098	1.233127e-05	1.582309e-05	5.408883e-06	1.234485e-05	
14.302099	1.216417e-05	1.531036e-05	5.439813e-06	1.241071e-05	
14.303100	1.199378e-05	1.481790e-05	5.470690e-06	1.247943e-05	
14.304101	1.182032e-05	1.434526e-05	5.501377e-06	1.255049e-05	
14.305102	1.164403e-05	1.389196e-05	5.531737e-06	1.262335e-05	
14.306103	1.146511e-05	1.345752e-05	5.561630e-06	1.269749e-05	
14.307103	1.128380e-05	1.304148e-05	5.590921e-06	1.277238e-05	
14.308104	1.110031e-05	1.264336e-05	5.619470e-06	1.284750e-05	
14.309105	1.091487e-05	1.226268e-05	5.647141e-06	1.292232e-05	
14.310106	1.072770e-05	1.189898e-05	5.673795e-06	1.299630e-05	
14.311107	1.053903e-05	1.155179e-05	5.699296e-06	1.306893e-05	
14.312107	1.034907e-05	1.122062e-05	5.723505e-06	1.313967e-05	
14.313108	1.015806e-05	1.090501e-05	5.746285e-06	1.320801e-05	
14.314109	9.966203e-06	1.060449e-05	5.767498e-06	1.327340e-05	
14.315110	9.773734e-06	1.031858e-05	5.787006e-06	1.333533e-05	
14.316111	9.580873e-06	1.004681e-05	5.804672e-06	1.339326e-05	
14.317111	9.387843e-06	9.788710e-06	5.820358e-06	1.344667e-05	
14.318112	9.194867e-06	9.543803e-06	5.833927e-06	1.349504e-05	
14.319113	9.002167e-06	9.311618e-06	5.845240e-06	1.353783e-05	
14.320114	8.809967e-06	9.091684e-06	5.854161e-06	1.357451e-05	
14.321115	8.618488e-06	8.883527e-06	5.860551e-06	1.360457e-05	
14.322116	8.427955e-06	8.686674e-06	5.864273e-06	1.362747e-05	
14.323116	8.238589e-06	8.500654e-06	5.865189e-06	1.364268e-05	
14.324117	8.050613e-06	8.324994e-06	5.863161e-06	1.364968e-05	
14.325118	7.864269e-06	8.159227e-06	5.858061e-06	1.364797e-05	
14.326119	7.680049e-06	8.002987e-06	5.849888e-06	1.363747e-05	
14.327120	7.498640e-06	7.855978e-06	5.838734e-06	1.361841e-05	
14.328120	7.320732e-06	7.717909e-06	5.824697e-06	1.359102e-05	
14.329121	7.147012e-06	7.588487e-06	5.807873e-06	1.355555e-05	
14.330122	6.978172e-06	7.467419e-06	5.788358e-06	1.351223e-05	
14.331123	6.814901e-06	7.354414e-06	5.766249e-06	1.346131e-05	
14.332124	6.657887e-06	7.249178e-06	5.741641e-06	1.340302e-05	
14.333124	6.507822e-06	7.151419e-06	5.714631e-06	1.333759e-05	
14.334125	6.365394e-06	7.060845e-06	5.685315e-06	1.326527e-05	
14.335126	6.231293e-06	6.977163e-06	5.653790e-06	1.318630e-05	
14.336127	6.106209e-06	6.900080e-06	5.620152e-06	1.310091e-05	
14.337128	5.990830e-06	6.829305e-06	5.584497e-06	1.300935e-05	
14.338129	5.885848e-06	6.764544e-06	5.546922e-06	1.291184e-05	
14.339129	5.791950e-06	6.705506e-06	5.507522e-06	1.280864e-05	
14.340130	5.709828e-06	6.651897e-06	5.466395e-06	1.269997e-05	
14.341131	5.640170e-06	6.603426e-06	5.423636e-06	1.258608e-05	
14.342132	5.583666e-06	6.559799e-06	5.379341e-06	1.246720e-05	
14.343133	5.541005e-06	6.520725e-06	5.333608e-06	1.234357e-05	
14.344133	5.512878e-06	6.485910e-06	5.286532e-06	1.221544e-05	
14.345134	5.499973e-06	6.455063e-06	5.238209e-06	1.208303e-05	
14.346135	5.502981e-06	6.427891e-06	5.188737e-06	1.194660e-05	
14.347136	5.522590e-06	6.404101e-06	5.138210e-06	1.180636e-05	
14.348137	5.559491e-06	6.383401e-06	5.086726e-06	1.166258e-05	
14.349138	5.614373e-06	6.365499e-06	5.034381e-06	1.151547e-05	
14.350138	5.687925e-06	6.350102e-06	4.981270e-06	1.136529e-05	
14.351139	5.780838e-06	6.336917e-06	4.927492e-06	1.121226e-05	
14.352140	5.893800e-06	6.325652e-06	4.873140e-06	1.105664e-05	
14.353141	6.027501e-06	6.316015e-06	4.818313e-06	1.089865e-05	
14.354142	6.182632e-06	6.307712e-06	4.763106e-06	1.073853e-05	
14.355142	6.359881e-06	6.300453e-06	4.707616e-06	1.057653e-05	
14.356143	6.559937e-06	6.293943e-06	4.651938e-06	1.041287e-05	
14.357144	6.783492e-06	6.287892e-06	4.596170e-06	1.024781e-05	
14.358145	7.031233e-06	6.282005e-06	4.540407e-06	1.008158e-05	
14.359146	7.303852e-06	6.275991e-06	4.484746e-06	9.914408e-06	
14.360146	7.602036e-06	6.269557e-06	4.429283e-06	9.746544e-06	
14.361147	7.926476e-06	6.262411e-06	4.374114e-06	9.578223e-06	
14.362148	8.277862e-06	6.254261e-06	4.319336e-06	9.409683e-06	
14.363149	8.656883e-06	6.244813e-06	4.265045e-06	9.241164e-06	
14.364150	9.064228e-06	6.233775e-06	4.211337e-06	9.072902e-06	
14.365151	9.500588e-06	6.220856e-06	4.158308e-06	8.905137e-06	
14.366151	9.966651e-06	6.205761e-06	4.106056e-06	8.738106e-06	
14.367152	1.046311e-05	6.188200e-06	4.054675e-06	8.572049e-06	
14.368153	1.099065e-05	6.167879e-06	4.004263e-06	8.407203e-06	
14.369154	1.154996e-05	6.144506e-06	3.954916e-06	8.243807e-06	
14.370155	1.214173e-05	6.117788e-06	3.906730e-06	8.082100e-06	
14.371155	1.276666e-05	6.087433e-06	3.859801e-06	7.922318e-06	
14.372156	1.342542e-05	6.053149e-06	3.814226e-06	7.764702e-06	
14.373157	1.411872e-05	6.014643e-06	3.770100e-06	7.609489e-06	
14.374158	1.484724e-05	5.971623e-06	3.727521e-06	7.456918e-06	
14.375159	1.561156e-05	5.923822e-06	3.686578e-06	7.307215e-06	
14.376159	1.641088e-05	5.871308e-06	3.647278e-06	7.160467e-06	
14.377160	1.724349e-05	5.814371e-06	3.609575e-06	7.016665e-06	
14.378161	1.810765e-05	5.753306e-06	3.573419e-06	6.875799e-06	
14.379162	1.900163e-05	5.688406e-06	3.538762e-06	6.737857e-06	
14.380163	1.992370e-05	5.619966e-06	3.505556e-06	6.602831e-06	
14.381164	2.087213e-05	5.548281e-06	3.473753e-06	6.470708e-06	
14.382164	2.184517e-05	5.473644e-06	3.443303e-06	6.341478e-06	
14.383165	2.284109e-05	5.396350e-06	3.414159e-06	6.215132e-06	
14.384166	2.385817e-05	5.316694e-06	3.386271e-06	6.091659e-06	
14.385167	2.489466e-05	5.234970e-06	3.359592e-06	5.971048e-06	
14.386168	2.594884e-05	5.151471e-06	3.334073e-06	5.853289e-06	
14.387168	2.701897e-05	5.066493e-06	3.309666e-06	5.738371e-06	
14.388169	2.810331e-05	4.980331e-06	3.286322e-06	5.626284e-06	
14.389170	2.920013e-05	4.893277e-06	3.263992e-06	5.517017e-06	
14.390171	3.030770e-05	4.805627e-06	3.242629e-06	5.410560e-06	
14.391172	3.142429e-05	4.717675e-06	3.222183e-06	5.306902e-06	
14.392172	3.254815e-05	4.629715e-06	3.202607e-06	5.206034e-06	
14.393173	3.367756e-05	4.542042e-06	3.183851e-06	5.107944e-06	
14.394174	3.481078e-05	4.454950e-06	3.165868e-06	5.012622e-06	
14.395175	3.594608e-05	4.368733e-06	3.148609e-06	4.920058e-06	
14.396176	3.708173e-05	4.283686e-06	3.132025e-06	4.830241e-06	
14.397177	3.821598e-05	4.200103e-06	3.116068e-06	4.743160e-06	
14.398177	3.934711e-05	4.118278e-06	3.100690e-06	4.658806e-06	
14.399178	4.047339e-05	4.038507e-06	3.085842e-06	4.577168e-06	
14.400179	4.159307e-05	3.961082e-06	3.071475e-06	4.498234e-06	
14.401180	4.270442e-05	3.886299e-06	3.057541e-06	4.421996e-06	
14.402181	4.380572e-05	3.814452e-06	3.043993e-06	4.348442e-06	
14.403181	4.489523e-05	3.745836e-06	3.030780e-06	4.277561e-06	
14.404182	4.597120e-05	3.680744e-06	3.017855e-06	4.209345e-06	
14.405183	4.703192e-05	3.619470e-06	3.005170e-06	4.143781e-06	
14.406184	4.807564e-05	3.562310e-06	2.992675e-06	4.080859e-06	
14.407185	4.910064e-05	3.509558e-06	2.980323e-06	4.020570e-06	
14.408186	5.010517e-05	3.461508e-06	2.968065e-06	3.962902e-06	
14.409186	5.108750e-05	3.418454e-06	2.955852e-06	3.907845e-06	
14.410187	5.204591e-05	3.380691e-06	2.943636e-06	3.855389e-06	
14.411188	5.297865e-05	3.348514e-06	2.931369e-06	3.805523e-06	
14.412189	5.388399e-05	3.322215e-06	2.919002e-06	3.758236e-06	
14.413190	5.476020e-05	3.302091e-06	2.906487e-06	3.713519e-06	
14.414190	5.560554e-05	3.288434e-06	2.893775e-06	3.671361e-06	
14.415191	5.641829e-05	3.281540e-06	2.880817e-06	3.631751e-06	
14.416192	5.719670e-05	3.281703e-06	2.867566e-06	3.594679e-06	
14.417193	5.793904e-05	3.289218e-06	2.853973e-06	3.560134e-06	
14.418194	5.864358e-05	3.304378e-06	2.839989e-06	3.528106e-06	
14.419194	5.930859e-05	3.327478e-06	2.825566e-06	3.498584e-06	
14.420195	5.993233e-05	3.358812e-06	2.810656e-06	3.471559e-06	
14.421196	6.051306e-05	3.398675e-06	2.795209e-06	3.447019e-06	
14.422197	6.104906e-05	3.447361e-06	2.779178e-06	3.424954e-06	
14.423198	6.153859e-05	3.505165e-06	2.762514e-06	3.405353e-06	
14.424199	6.197991e-05	3.572380e-06	2.745169e-06	3.388207e-06	
14.425199	6.237149e-05	3.649264e-06	2.727099e-06	3.373499e-06	
14.426200	6.271390e-05	3.735681e-06	2.708314e-06	3.361168e-06	
14.427201	6.300900e-05	3.831256e-06	2.688855e-06	3.351119e-06	
14.428202	6.325863e-05	3.935611e-06	2.668764e-06	3.343259e-06	
14.429203	6.346467e-05	4.048369e-06	2.648083e-06	3.337495e-06	
14.430203	6.362897e-05	4.169152e-06	2.626855e-06	3.333735e-06	
14.431204	6.375340e-05	4.297582e-06	2.605122e-06	3.331884e-06	
14.432205	6.383983e-05	4.433281e-06	2.582924e-06	3.331849e-06	
14.433206	6.389012e-05	4.575872e-06	2.560306e-06	3.333537e-06	
14.434207	6.390612e-05	4.724978e-06	2.537307e-06	3.336856e-06	
14.435207	6.388971e-05	4.880220e-06	2.513971e-06	3.341711e-06	
14.436208	6.384274e-05	5.041221e-06	2.490340e-06	3.348009e-06	
14.437209	6.376708e-05	5.207603e-06	2.466455e-06	3.355657e-06	
14.438210	6.366459e-05	5.378988e-06	2.442358e-06	3.364562e-06	
14.439211	6.353713e-05	5.554999e-06	2.418092e-06	3.374631e-06	
14.440212	6.338658e-05	5.735258e-06	2.393699e-06	3.385770e-06	
14.441212	6.321478e-05	5.919387e-06	2.369220e-06	3.397886e-06	
14.442213	6.302361e-05	6.107009e-06	2.344698e-06	3.410886e-06	
14.443214	6.281493e-05	6.297746e-06	2.320174e-06	3.424676e-06	
14.444215	6.259059e-05	6.491220e-06	2.295691e-06	3.439164e-06	
14.445216	6.235247e-05	6.687053e-06	2.271291e-06	3.454256e-06	
14.446216	6.210242e-05	6.884869e-06	2.247015e-06	3.469858e-06	
14.447217	6.184231e-05	7.084288e-06	2.222907e-06	3.485878e-06	
14.448218	6.157401e-05	7.284934e-06	2.199006e-06	3.502222e-06	
14.449219	6.129937e-05	7.486429e-06	2.175357e-06	3.518797e-06	
14.450220	6.102026e-05	7.688395e-06	2.152000e-06	3.535510e-06	
14.451221	6.073854e-05	7.890454e-06	2.128978e-06	3.552267e-06	
14.452221	6.045607e-05	8.092229e-06	2.106333e-06	3.568976e-06	
14.453222	6.017472e-05	8.293341e-06	2.084106e-06	3.585542e-06	
14.454223	5.989635e-05	8.493414e-06	2.062341e-06	3.601874e-06	
14.455224	5.962283e-05	8.692070e-06	2.041078e-06	3.617876e-06	
14.456225	5.935601e-05	8.888930e-06	2.020360e-06	3.633457e-06	
14.457225	5.909776e-05	9.083618e-06	2.000229e-06	3.648523e-06	
14.458226	5.884994e-05	9.275755e-06	1.980727e-06	3.662980e-06	
14.459227	5.861442e-05	9.464964e-06	1.961896e-06	3.676736e-06	
14.460228	5.839305e-05	9.650867e-06	1.943777e-06	3.689697e-06	
14.461229	5.818771e-05	9.833087e-06	1.926414e-06	3.701769e-06	
14.462229	5.800026e-05	1.001124e-05	1.909848e-06	3.712861e-06	
14.463230	5.783255e-05	1.018496e-05	1.894120e-06	3.722877e-06	
14.464231	5.768645e-05	1.035387e-05	1.879274e-06	3.731726e-06	
14.465232	5.756383e-05	1.051757e-05	1.865351e-06	3.739314e-06	
14.466233	5.746654e-05	1.067571e-05	1.852393e-06	3.745547e-06	
14.467234	5.739645e-05	1.082790e-05	1.840441e-06	3.750333e-06	
14.468234	5.735543e-05	1.097376e-05	1.829539e-06	3.753577e-06	
14.469235	5.734533e-05	1.111291e-05	1.819728e-06	3.755188e-06	
14.470236	5.736802e-05	1.124498e-05	1.811050e-06	3.755071e-06	
14.471237	5.742536e-05	1.136959e-05	1.803548e-06	3.753133e-06	
14.472238	5.751922e-05	1.148636e-05	1.797262e-06	3.749282e-06	
14.473238	5.765146e-05	1.159492e-05	1.792236e-06	3.743423e-06	
14.474239	5.782394e-05	1.169488e-05	1.788511e-06	3.735464e-06	
14.475240	5.803828e-05	1.178591e-05	1.786123e-06	3.725323e-06	
14.476241	5.829388e-05	1.186804e-05	1.785058e-06	3.713043e-06	
14.477242	5.858896e-05	1.194149e-05	1.785273e-06	3.698726e-06	
14.478242	5.892168e-05	1.200650e-05	1.786724e-06	3.682480e-06	
14.479243	5.929025e-05	1.206329e-05	1.789368e-06	3.664409e-06	
14.480244	5.969284e-05	1.211209e-05	1.793161e-06	3.644620e-06	
14.481245	6.012766e-05	1.215313e-05	1.798061e-06	3.623218e-06	
14.482246	6.059288e-05	1.218664e-05	1.804024e-06	3.600308e-06	
14.483247	6.108670e-05	1.221284e-05	1.811008e-06	3.575997e-06	
14.484247	6.160730e-05	1.223198e-05	1.818967e-06	3.550389e-06	
14.485248	6.215288e-05	1.224427e-05	1.827861e-06	3.523592e-06	
14.486249	6.272161e-05	1.224995e-05	1.837644e-06	3.495710e-06	
14.487250	6.331170e-05	1.224924e-05	1.848274e-06	3.466849e-06	
14.488251	6.392132e-05	1.224237e-05	1.859708e-06	3.437114e-06	
14.489251	6.454867e-05	1.222958e-05	1.871902e-06	3.406612e-06	
14.490252	6.519193e-05	1.221109e-05	1.884813e-06	3.375448e-06	
14.491253	6.584929e-05	1.218713e-05	1.898398e-06	3.343728e-06	
14.492254	6.651895e-05	1.215793e-05	1.912613e-06	3.311557e-06	
14.493255	6.719908e-05	1.212372e-05	1.927416e-06	3.279041e-06	
14.494255	6.788789e-05	1.208472e-05	1.942763e-06	3.246286e-06	
14.495256	6.858355e-05	1.204117e-05	1.958610e-06	3.213398e-06	
14.496257	6.928425e-05	1.199330e-05	1.974915e-06	3.180481e-06	
14.497258	6.998819e-05	1.194134e-05	1.991634e-06	3.147643e-06	
14.498259	7.069354e-05	1.188550e-05	2.008724e-06	3.114987e-06	
14.499260	7.139851e-05	1.182603e-05	2.026142e-06	3.082621e-06	
14.500260	7.210128e-05	1.176315e-05	2.043844e-06	3.050650e-06	
14.501261	7.280003e-05	1.169709e-05	2.061787e-06	3.019179e-06	
14.502262	7.349296e-05	1.162809e-05	2.079928e-06	2.988314e-06	
14.503263	7.417825e-05	1.155636e-05	2.098223e-06	2.958160e-06	
14.504264	7.485409e-05	1.148214e-05	2.116630e-06	2.928825e-06	
14.505264	7.551868e-05	1.140565e-05	2.135105e-06	2.900412e-06	
14.506265	7.617019e-05	1.132713e-05	2.153605e-06	2.873028e-06	
14.507266	7.680682e-05	1.124681e-05	2.172086e-06	2.846779e-06	
14.508267	7.742675e-05	1.116491e-05	2.190506e-06	2.821770e-06	
14.509268	7.802818e-05	1.108166e-05	2.208820e-06	2.798106e-06	
14.510269	7.860929e-05	1.099730e-05	2.226986e-06	2.775894e-06	
14.511269	7.916827e-05	1.091205e-05	2.244961e-06	2.755240e-06	
14.512270	7.970331e-05	1.082613e-05	2.262701e-06	2.736248e-06	
14.513271	8.021260e-05	1.073979e-05	2.280163e-06	2.719024e-06	
14.514272	8.069433e-05	1.065324e-05	2.297303e-06	2.703675e-06	
14.515273	8.114667e-05	1.056672e-05	2.314079e-06	2.690305e-06	
14.516273	8.156783e-05	1.048046e-05	2.330447e-06	2.679021e-06	
14.517274	8.195600e-05	1.039468e-05	2.346364e-06	2.669928e-06	
14.518275	8.230935e-05	1.030962e-05	2.361786e-06	2.663132e-06	
14.519276	8.262608e-05	1.022550e-05	2.376670e-06	2.658739e-06	
14.520277	8.290437e-05	1.014255e-05	2.390974e-06	2.656854e-06	
14.521277	8.314242e-05	1.006100e-05	2.404654e-06	2.657582e-06	
14.522278	8.333841e-05	9.981088e-06	2.417666e-06	2.661030e-06	
14.523279	8.349054e-05	9.903031e-06	2.429967e-06	2.667303e-06	
14.524280	8.359698e-05	9.827062e-06	2.441514e-06	2.676507e-06	
14.525281	8.365621e-05	9.753389e-06	2.452269e-06	2.688730e-06	
14.526282	8.366897e-05	9.682042e-06	2.462233e-06	2.703917e-06	
14.527282	8.363709e-05	9.612967e-06	2.471427e-06	2.721942e-06	
14.528283	8.356241e-05	9.546108e-06	2.479872e-06	2.742682e-06	
14.529284	8.344677e-05	9.481410e-06	2.487590e-06	2.766011e-06	
14.530285	8.329201e-05	9.418819e-06	2.494600e-06	2.791805e-06	
14.531286	8.309997e-05	9.358278e-06	2.500925e-06	2.819939e-06	
14.532286	8.287249e-05	9.299733e-06	2.506585e-06	2.850287e-06	
14.533287	8.261141e-05	9.243129e-06	2.511601e-06	2.882725e-06	
14.534288	8.231857e-05	9.188410e-06	2.515994e-06	2.917128e-06	
14.535289	8.199581e-05	9.135521e-06	2.519785e-06	2.953371e-06	
14.536290	8.164498e-05	9.084407e-06	2.522995e-06	2.991330e-06	
14.537290	8.126791e-05	9.035013e-06	2.525646e-06	3.030879e-06	
14.538291	8.086644e-05	8.987284e-06	2.527757e-06	3.071894e-06	
14.539292	8.044241e-05	8.941165e-06	2.529351e-06	3.114249e-06	
14.540293	7.999767e-05	8.896600e-06	2.530448e-06	3.157820e-06	
14.541294	7.953405e-05	8.853534e-06	2.531069e-06	3.202482e-06	
14.542295	7.905339e-05	8.811912e-06	2.531235e-06	3.248110e-06	
14.543295	7.855753e-05	8.771679e-06	2.530967e-06	3.294579e-06	
14.544296	7.804832e-05	8.732780e-06	2.530286e-06	3.341765e-06	
14.545297	7.752760e-05	8.695159e-06	2.529214e-06	3.389542e-06	
14.546298	7.699719e-05	8.658762e-06	2.527770e-06	3.437786e-06	
14.547299	7.645896e-05	8.623533e-06	2.525977e-06	3.486371e-06	
14.548299	7.591473e-05	8.589417e-06	2.523855e-06	3.535173e-06	
14.549300	7.536634e-05	8.556359e-06	2.521425e-06	3.584067e-06	
14.550301	7.481564e-05	8.524303e-06	2.518708e-06	3.632929e-06	
14.551302	7.426446e-05	8.493195e-06	2.515725e-06	3.681632e-06	
14.552303	7.371465e-05	8.462980e-06	2.512498e-06	3.730053e-06	
14.553303	7.316805e-05	8.433601e-06	2.509046e-06	3.778066e-06	
14.554304	7.262649e-05	8.405005e-06	2.505392e-06	3.825547e-06	
14.555305	7.209182e-05	8.377136e-06	2.501556e-06	3.872371e-06	
14.556306	7.156588e-05	8.349938e-06	2.497559e-06	3.918412e-06	
14.557307	7.105050e-05	8.323357e-06	2.493422e-06	3.963547e-06	
14.558308	7.054753e-05	8.297337e-06	2.489166e-06	4.007649e-06	
14.559308	7.005881e-05	8.271823e-06	2.484812e-06	4.050595e-06	
14.560309	6.958618e-05	8.246761e-06	2.480382e-06	4.092259e-06	
14.561310	6.913147e-05	8.222094e-06	2.475896e-06	4.132517e-06	
14.562311	6.869654e-05	8.197768e-06	2.471374e-06	4.171243e-06	
14.563312	6.828321e-05	8.173727e-06	2.466839e-06	4.208313e-06	
14.564312	6.789333e-05	8.149917e-06	2.462311e-06	4.243602e-06	
14.565313	6.752874e-05	8.126282e-06	2.457812e-06	4.276985e-06	
14.566314	6.719128e-05	8.102767e-06	2.453361e-06	4.308337e-06	
14.567315	6.688279e-05	8.079317e-06	2.448981e-06	4.337534e-06	
14.568316	6.660511e-05	8.055876e-06	2.444691e-06	4.364450e-06	
14.569317	6.636008e-05	8.032390e-06	2.440514e-06	4.388960e-06	
14.570317	6.614955e-05	8.008804e-06	2.436470e-06	4.410940e-06	
14.571318	6.597534e-05	7.985061e-06	2.432580e-06	4.430265e-06	
14.572319	6.583930e-05	7.961108e-06	2.428865e-06	4.446810e-06	
14.573320	6.574328e-05	7.936888e-06	2.425347e-06	4.460449e-06	
14.574321	6.568910e-05	7.912347e-06	2.422045e-06	4.471059e-06	
14.575321	6.567832e-05	7.887439e-06	2.418980e-06	4.478534e-06	
14.576322	6.571030e-05	7.862183e-06	2.416152e-06	4.482909e-06	
14.577323	6.578350e-05	7.836625e-06	2.413558e-06	4.484278e-06	
14.578324	6.589637e-05	7.810815e-06	2.411192e-06	4.482736e-06	
14.579325	6.604736e-05	7.784798e-06	2.409050e-06	4.478379e-06	
14.580325	6.623491e-05	7.758622e-06	2.407127e-06	4.471301e-06	
14.581326	6.645747e-05	7.732334e-06	2.405417e-06	4.461598e-06	
14.582327	6.671349e-05	7.705983e-06	2.403917e-06	4.449365e-06	
14.583328	6.700141e-05	7.679614e-06	2.402621e-06	4.434697e-06	
14.584329	6.731969e-05	7.653276e-06	2.401524e-06	4.417688e-06	
14.585330	6.766678e-05	7.627016e-06	2.400621e-06	4.398434e-06	
14.586330	6.804111e-05	7.600881e-06	2.399909e-06	4.377029e-06	
14.587331	6.844114e-05	7.574919e-06	2.399381e-06	4.353570e-06	
14.588332	6.886532e-05	7.549176e-06	2.399033e-06	4.328150e-06	
14.589333	6.931209e-05	7.523701e-06	2.398860e-06	4.300866e-06	
14.590334	6.977990e-05	7.498541e-06	2.398858e-06	4.271812e-06	
14.591334	7.026720e-05	7.473742e-06	2.399021e-06	4.241082e-06	
14.592335	7.077244e-05	7.449353e-06	2.399345e-06	4.208773e-06	
14.593336	7.129406e-05	7.425420e-06	2.399824e-06	4.174979e-06	
14.594337	7.183051e-05	7.401992e-06	2.400455e-06	4.139795e-06	
14.595338	7.238025e-05	7.379114e-06	2.401231e-06	4.103316e-06	
14.596338	7.294171e-05	7.356836e-06	2.402149e-06	4.065638e-06	
14.597339	7.351335e-05	7.335203e-06	2.403203e-06	4.026855e-06	
14.598340	7.409361e-05	7.314264e-06	2.404389e-06	3.987063e-06	
14.599341	7.468095e-05	7.294066e-06	2.405702e-06	3.946356e-06	
14.600342	7.527380e-05	7.274655e-06	2.407136e-06	3.904829e-06	
14.601343	7.587062e-05	7.256080e-06	2.408687e-06	3.862578e-06	
14.602343	7.646986e-05	7.238388e-06	2.410351e-06	3.819698e-06	
14.603344	7.706996e-05	7.221626e-06	2.412122e-06	3.776283e-06	
14.604345	7.766937e-05	7.205842e-06	2.413995e-06	3.732429e-06	
14.605346	7.826654e-05	7.191082e-06	2.415966e-06	3.688231e-06	
14.606347	7.885991e-05	7.177394e-06	2.418030e-06	3.643783e-06	
14.607347	7.944794e-05	7.164826e-06	2.420182e-06	3.599182e-06	
14.608348	8.002907e-05	7.153425e-06	2.422417e-06	3.554521e-06	
14.609349	8.060175e-05	7.143238e-06	2.424730e-06	3.509896e-06	
14.610350	8.116442e-05	7.134313e-06	2.427116e-06	3.465403e-06	
14.611351	8.171555e-05	7.126696e-06	2.429572e-06	3.421135e-06	
14.612352	8.225356e-05	7.120436e-06	2.432090e-06	3.377188e-06	
14.613352	8.277692e-05	7.115579e-06	2.434668e-06	3.333658e-06	
14.614353	8.328406e-05	7.112174e-06	2.437300e-06	3.290638e-06	
14.615354	8.377344e-05	7.110266e-06	2.439981e-06	3.248225e-06	
14.616355	8.424351e-05	7.109904e-06	2.442707e-06	3.206513e-06	
14.617356	8.469270e-05	7.111135e-06	2.445472e-06	3.165598e-06	
14.618356	8.511948e-05	7.114007e-06	2.448271e-06	3.125574e-06	
14.619357	8.552228e-05	7.118566e-06	2.451101e-06	3.086536e-06	
14.620358	8.589956e-05	7.124860e-06	2.453955e-06	3.048580e-06	
14.621359	8.624977e-05	7.132937e-06	2.456830e-06	3.011800e-06	
14.622360	8.657134e-05	7.142843e-06	2.459720e-06	2.976292e-06	
14.623360	8.686273e-05	7.154627e-06	2.462620e-06	2.942150e-06	
14.624361	8.712239e-05	7.168335e-06	2.465526e-06	2.909471e-06	
14.625362	8.734905e-05	7.184008e-06	2.468433e-06	2.878340e-06	
14.626363	8.754327e-05	7.201648e-06	2.471334e-06	2.848801e-06	
14.627364	8.770626e-05	7.221241e-06	2.474225e-06	2.820878e-06	
14.628365	8.783929e-05	7.242774e-06	2.477099e-06	2.794596e-06	
14.629365	8.794357e-05	7.266231e-06	2.479951e-06	2.769980e-06	
14.630366	8.802036e-05	7.291601e-06	2.482775e-06	2.747053e-06	
14.631367	8.807089e-05	7.318868e-06	2.485564e-06	2.725841e-06	
14.632368	8.809640e-05	7.348019e-06	2.488313e-06	2.706368e-06	
14.633369	8.809813e-05	7.379040e-06	2.491016e-06	2.688659e-06	
14.634369	8.807732e-05	7.411918e-06	2.493668e-06	2.672738e-06	
14.635370	8.803520e-05	7.446638e-06	2.496262e-06	2.658630e-06	
14.636371	8.797303e-05	7.483186e-06	2.498792e-06	2.646360e-06	
14.637372	8.789203e-05	7.521550e-06	2.501253e-06	2.635952e-06	
14.638373	8.779344e-05	7.561715e-06	2.503639e-06	2.627430e-06	
14.639373	8.767851e-05	7.603667e-06	2.505944e-06	2.620820e-06	
14.640374	8.754847e-05	7.647392e-06	2.508162e-06	2.616146e-06	
14.641375	8.740456e-05	7.692877e-06	2.510287e-06	2.613432e-06	
14.642376	8.724802e-05	7.740107e-06	2.512314e-06	2.612703e-06	
14.643377	8.708009e-05	7.789070e-06	2.514236e-06	2.613984e-06	
14.644378	8.690201e-05	7.839751e-06	2.516048e-06	2.617300e-06	
14.645378	8.671502e-05	7.892136e-06	2.517744e-06	2.622674e-06	
14.646379	8.652035e-05	7.946211e-06	2.519317e-06	2.630132e-06	
14.647380	8.631925e-05	8.001964e-06	2.520763e-06	2.639698e-06	
14.648381	8.611295e-05	8.059379e-06	2.522075e-06	2.651397e-06	
14.649382	8.590270e-05	8.118443e-06	2.523248e-06	2.665253e-06	
14.650382	8.568973e-05	8.179142e-06	2.524275e-06	2.681290e-06	
14.651383	8.547528e-05	8.241463e-06	2.525151e-06	2.699535e-06	
14.652384	8.526060e-05	8.305391e-06	2.525870e-06	2.720010e-06	
14.653385	8.504691e-05	8.370913e-06	2.526426e-06	2.742741e-06	
14.654386	8.483546e-05	8.438016e-06	2.526813e-06	2.767752e-06	
14.655386	8.462749e-05	8.506684e-06	2.527026e-06	2.795069e-06	
14.656387	8.442423e-05	8.576904e-06	2.527057e-06	2.824714e-06	
14.657388	8.422693e-05	8.648663e-06	2.526903e-06	2.856714e-06	
14.658389	8.403683e-05	8.721947e-06	2.526556e-06	2.891092e-06	
14.659390	8.385516e-05	8.796742e-06	2.526011e-06	2.927874e-06	
14.660391	8.368316e-05	8.873033e-06	2.525263e-06	2.967084e-06	
14.661391	8.352207e-05	8.950808e-06	2.524304e-06	3.008746e-06	
14.662392	8.337313e-05	9.030053e-06	2.523130e-06	3.052885e-06	
14.663393	8.323759e-05	9.110752e-06	2.521734e-06	3.099525e-06	
14.664394	8.311667e-05	9.192894e-06	2.520111e-06	3.148692e-06	
14.665395	8.301162e-05	9.276464e-06	2.518255e-06	3.200410e-06	
14.666395	8.292367e-05	9.361447e-06	2.516159e-06	3.254703e-06	
14.667396	8.285407e-05	9.447831e-06	2.513819e-06	3.311596e-06	
14.668397	8.280406e-05	9.535602e-06	2.511228e-06	3.371114e-06	
14.669398	8.277487e-05	9.624745e-06	2.508380e-06	3.433281e-06	
14.670399	8.276774e-05	9.715247e-06	2.505270e-06	3.498122e-06	
14.671400	8.278391e-05	9.807094e-06	2.501892e-06	3.565661e-06	
14.672400	8.282462e-05	9.900273e-06	2.498239e-06	3.635923e-06	
14.673401	8.289112e-05	9.994769e-06	2.494306e-06	3.708933e-06	
14.674402	8.298463e-05	1.009057e-05	2.490088e-06	3.784715e-06	
14.675403	8.310603e-05	1.018764e-05	2.485579e-06	3.863268e-06	
14.676404	8.325413e-05	1.028584e-05	2.480785e-06	3.944443e-06	
14.677404	8.342708e-05	1.038499e-05	2.475712e-06	4.028043e-06	
14.678405	8.362300e-05	1.048493e-05	2.470368e-06	4.113872e-06	
14.679406	8.384002e-05	1.058547e-05	2.464762e-06	4.201732e-06	
14.680407	8.407625e-05	1.068643e-05	2.458899e-06	4.291425e-06	
14.681408	8.432984e-05	1.078765e-05	2.452787e-06	4.382754e-06	
14.682408	8.459891e-05	1.088895e-05	2.446435e-06	4.475521e-06	
14.683409	8.488159e-05	1.099014e-05	2.439849e-06	4.569531e-06	
14.684410	8.517601e-05	1.109106e-05	2.433037e-06	4.664584e-06	
14.685411	8.548029e-05	1.119153e-05	2.426006e-06	4.760485e-06	
14.686412	8.579256e-05	1.129137e-05	2.418764e-06	4.857035e-06	
14.687413	8.611095e-05	1.139040e-05	2.411317e-06	4.954037e-06	
14.688413	8.643359e-05	1.148846e-05	2.403675e-06	5.051293e-06	
14.689414	8.675860e-05	1.158536e-05	2.395843e-06	5.148608e-06	
14.690415	8.708412e-05	1.168093e-05	2.387830e-06	5.245782e-06	
14.691416	8.740827e-05	1.177500e-05	2.379643e-06	5.342620e-06	
14.692417	8.772918e-05	1.186738e-05	2.371289e-06	5.438922e-06	
14.693417	8.804498e-05	1.195791e-05	2.362775e-06	5.534493e-06	
14.694418	8.835380e-05	1.204640e-05	2.354110e-06	5.629135e-06	
14.695419	8.865376e-05	1.213268e-05	2.345301e-06	5.722651e-06	
14.696420	8.894299e-05	1.221657e-05	2.336355e-06	5.814842e-06	
14.697421	8.921962e-05	1.229791e-05	2.327279e-06	5.905513e-06	
14.698421	8.948177e-05	1.237650e-05	2.318081e-06	5.994465e-06	
14.699422	8.972759e-05	1.245218e-05	2.308768e-06	6.081501e-06	
14.700423	8.995518e-05	1.252478e-05	2.299349e-06	6.166424e-06	
14.701424	9.016269e-05	1.259411e-05	2.289829e-06	6.249037e-06	
14.702425	9.034824e-05	1.266000e-05	2.280217e-06	6.329142e-06	
14.703426	9.050996e-05	1.272227e-05	2.270521e-06	6.406541e-06	
14.704426	9.064597e-05	1.278075e-05	2.260747e-06	6.481039e-06	
14.705427	9.075441e-05	1.283526e-05	2.250903e-06	6.552436e-06	
14.706428	9.083339e-05	1.288563e-05	2.240996e-06	6.620537e-06	
14.707429	9.088106e-05	1.293167e-05	2.231034e-06	6.685143e-06	
14.708430	9.089553e-05	1.297323e-05	2.221025e-06	6.746057e-06	
14.709430	9.087494e-05	1.301011e-05	2.210975e-06	6.803082e-06	
14.710431	9.081742e-05	1.304214e-05	2.200893e-06	6.856021e-06	
14.711432	9.072108e-05	1.306915e-05	2.190785e-06	6.904676e-06	
14.712433	9.058406e-05	1.309096e-05	2.180659e-06	6.948850e-06	
14.713434	9.040449e-05	1.310740e-05	2.170523e-06	6.988345e-06	
14.714434	9.018050e-05	1.311828e-05	2.160383e-06	7.022965e-06	
14.715435	8.991021e-05	1.312344e-05	2.150249e-06	7.052512e-06	
14.716436	8.959175e-05	1.312270e-05	2.140125e-06	7.076788e-06	
14.717437	8.922325e-05	1.311588e-05	2.130022e-06	7.095597e-06	
14.718438	8.880284e-05	1.310280e-05	2.119944e-06	7.108740e-06	
14.719439	8.832864e-05	1.308329e-05	2.109901e-06	7.116021e-06	
14.720439	8.779879e-05	1.305718e-05	2.099900e-06	7.117243e-06	
14.721440	8.721141e-05	1.302429e-05	2.089948e-06	7.112207e-06	
14.722441	8.656462e-05	1.298444e-05	2.080052e-06	7.100717e-06	
14.723442	8.585657e-05	1.293746e-05	2.070220e-06	7.082576e-06	
14.724443	8.508536e-05	1.288317e-05	2.060459e-06	7.057585e-06	
14.725443	8.424973e-05	1.282147e-05	2.050776e-06	7.025609e-06	
14.726444	8.335121e-05	1.275268e-05	2.041173e-06	6.986806e-06	
14.727445	8.239219e-05	1.267721e-05	2.031652e-06	6.941426e-06	
14.728446	8.137510e-05	1.259549e-05	2.022212e-06	6.889716e-06	
14.729447	8.030232e-05	1.250796e-05	2.012854e-06	6.831926e-06	
14.730448	7.917625e-05	1.241502e-05	2.003581e-06	6.768303e-06	
14.731448	7.799932e-05	1.231711e-05	1.994392e-06	6.699098e-06	
14.732449	7.677390e-05	1.221465e-05	1.985288e-06	6.624557e-06	
14.733450	7.550241e-05	1.210806e-05	1.976271e-06	6.544931e-06	
14.734451	7.418725e-05	1.199778e-05	1.967341e-06	6.460467e-06	
14.735452	7.283082e-05	1.188422e-05	1.958499e-06	6.371414e-06	
14.736452	7.143553e-05	1.176782e-05	1.949745e-06	6.278021e-06	
14.737453	7.000376e-05	1.164899e-05	1.941082e-06	6.180536e-06	
14.738454	6.853794e-05	1.152816e-05	1.932510e-06	6.079208e-06	
14.739455	6.704046e-05	1.140575e-05	1.924029e-06	5.974286e-06	
14.740456	6.551372e-05	1.128220e-05	1.915640e-06	5.866018e-06	
14.741456	6.396012e-05	1.115793e-05	1.907346e-06	5.754653e-06	
14.742457	6.238207e-05	1.103335e-05	1.899145e-06	5.640439e-06	
14.743458	6.078197e-05	1.090890e-05	1.891039e-06	5.523625e-06	
14.744459	5.916222e-05	1.078500e-05	1.883030e-06	5.404460e-06	
14.745460	5.752523e-05	1.066208e-05	1.875118e-06	5.283192e-06	
14.746461	5.587339e-05	1.054056e-05	1.867303e-06	5.160070e-06	
14.747461	5.420911e-05	1.042087e-05	1.859587e-06	5.035343e-06	
14.748462	5.253479e-05	1.030342e-05	1.851971e-06	4.909259e-06	
14.749463	5.085284e-05	1.018865e-05	1.844456e-06	4.782066e-06	
14.750464	4.916565e-05	1.007698e-05	1.837041e-06	4.654014e-06	
14.751465	4.747562e-05	9.968839e-06	1.829730e-06	4.525351e-06	
14.752465	4.578517e-05	9.864646e-06	1.822521e-06	4.396326e-06	
14.753466	4.409669e-05	9.764829e-06	1.815416e-06	4.267187e-06	
14.754467	4.241258e-05	9.669812e-06	1.808417e-06	4.138182e-06	
14.755468	4.073525e-05	9.580021e-06	1.801523e-06	4.009561e-06	
14.756469	3.906710e-05	9.495880e-06	1.794736e-06	3.881573e-06	
14.757469	3.741053e-05	9.417815e-06	1.788056e-06	3.754464e-06	
14.758470	3.576795e-05	9.346250e-06	1.781485e-06	3.628486e-06	
14.759471	3.414175e-05	9.281610e-06	1.775024e-06	3.503885e-06	
14.760472	3.253434e-05	9.224321e-06	1.768673e-06	3.380911e-06	
14.761473	3.094812e-05	9.174807e-06	1.762433e-06	3.259812e-06	
14.762474	2.938549e-05	9.133493e-06	1.756305e-06	3.140836e-06	
14.763474	2.784886e-05	9.100804e-06	1.750290e-06	3.024233e-06	
14.764475	2.634062e-05	9.077165e-06	1.744389e-06	2.910252e-06	
14.765476	2.486319e-05	9.063002e-06	1.738602e-06	2.799139e-06	
14.766477	2.341896e-05	9.058739e-06	1.732932e-06	2.691146e-06	
14.767478	2.201033e-05	9.064800e-06	1.727377e-06	2.586519e-06	
14.768478	2.063971e-05	9.081612e-06	1.721941e-06	2.485507e-06	
14.769479	1.930949e-05	9.109599e-06	1.716622e-06	2.388360e-06	
14.770480	1.802209e-05	9.149185e-06	1.711423e-06	2.295325e-06	
14.771481	1.677991e-05	9.200797e-06	1.706344e-06	2.206652e-06	
14.772482	1.558533e-05	9.264858e-06	1.701386e-06	2.122588e-06	
14.773483	1.444078e-05	9.341794e-06	1.696549e-06	2.043384e-06	
14.774483	1.334865e-05	9.432030e-06	1.691836e-06	1.969286e-06	
14.775484	1.231077e-05	9.535821e-06	1.687248e-06	1.900487e-06	
14.776485	1.132656e-05	9.652686e-06	1.682797e-06	1.836931e-06	
14.777486	1.039477e-05	9.781950e-06	1.678499e-06	1.778497e-06	
14.778487	9.514162e-06	9.922938e-06	1.674367e-06	1.725062e-06	
14.779487	8.683484e-06	1.007497e-05	1.670414e-06	1.676506e-06	
14.780488	7.901496e-06	1.023738e-05	1.666657e-06	1.632706e-06	
14.781489	7.166953e-06	1.040948e-05	1.663108e-06	1.593542e-06	
14.782490	6.478613e-06	1.059061e-05	1.659783e-06	1.558891e-06	
14.783491	5.835230e-06	1.078007e-05	1.656694e-06	1.528632e-06	
14.784491	5.235561e-06	1.097721e-05	1.653858e-06	1.502644e-06	
14.785492	4.678363e-06	1.118134e-05	1.651287e-06	1.480804e-06	
14.786493	4.162390e-06	1.139178e-05	1.648996e-06	1.462992e-06	
14.787494	3.686400e-06	1.160787e-05	1.647000e-06	1.449086e-06	
14.788495	3.249147e-06	1.182892e-05	1.645312e-06	1.438964e-06	
14.789496	2.849390e-06	1.205426e-05	1.643948e-06	1.432504e-06	
14.790496	2.485882e-06	1.228321e-05	1.642920e-06	1.429585e-06	
14.791497	2.157381e-06	1.251510e-05	1.642244e-06	1.430086e-06	
14.792498	1.862643e-06	1.274925e-05	1.641933e-06	1.433885e-06	
14.793499	1.600423e-06	1.298499e-05	1.642002e-06	1.440860e-06	
14.794500	1.369478e-06	1.322164e-05	1.642465e-06	1.450889e-06	
14.795500	1.168564e-06	1.345852e-05	1.643337e-06	1.463852e-06	
14.796501	9.964370e-07	1.369496e-05	1.644631e-06	1.479627e-06	
14.797502	8.518528e-07	1.393028e-05	1.646363e-06	1.498091e-06	
14.798503	7.335675e-07	1.416381e-05	1.648545e-06	1.519124e-06	
14.799504	6.403374e-07	1.439488e-05	1.651193e-06	1.542604e-06	
14.800504	5.709185e-07	1.462279e-05	1.654320e-06	1.568409e-06	
14.801505	5.240669e-07	1.484689e-05	1.657941e-06	1.596418e-06	
14.802506	4.985386e-07	1.506648e-05	1.662071e-06	1.626509e-06	
14.803507	4.930898e-07	1.528091e-05	1.666723e-06	1.658560e-06	
14.804508	5.064764e-07	1.548949e-05	1.671911e-06	1.692450e-06	
14.805509	5.374546e-07	1.569154e-05	1.677651e-06	1.728058e-06	
14.806509	5.847805e-07	1.588640e-05	1.683955e-06	1.765262e-06	
14.807510	6.472102e-07	1.607337e-05	1.690839e-06	1.803940e-06	
14.808511	7.234996e-07	1.625180e-05	1.698317e-06	1.843971e-06	
14.809512	8.124050e-07	1.642100e-05	1.706403e-06	1.885233e-06	
14.810513	9.126823e-07	1.658029e-05	1.715110e-06	1.927604e-06	
14.811513	1.023088e-06	1.672901e-05	1.724455e-06	1.970964e-06	
14.812514	1.142377e-06	1.686647e-05	1.734450e-06	2.015189e-06	
14.813515	1.269307e-06	1.699200e-05	1.745110e-06	2.060160e-06	
14.814516	1.402633e-06	1.710492e-05	1.756449e-06	2.105754e-06	
14.815517	1.541111e-06	1.720456e-05	1.768481e-06	2.151850e-06	
14.816517	1.683498e-06	1.729025e-05	1.781221e-06	2.198325e-06	
14.817518	1.828549e-06	1.736130e-05	1.794684e-06	2.245060e-06	
14.818519	1.975021e-06	1.741703e-05	1.808882e-06	2.291931e-06	
14.819520	2.121670e-06	1.745679e-05	1.823831e-06	2.338818e-06	
14.820521	2.267251e-06	1.747988e-05	1.839544e-06	2.385598e-06	
14.821522	2.410521e-06	1.748563e-05	1.856037e-06	2.432151e-06	
14.822522	2.550236e-06	1.747337e-05	1.873323e-06	2.478354e-06	
14.823523	2.685152e-06	1.744242e-05	1.891416e-06	2.524087e-06	
14.824524	2.814025e-06	1.739211e-05	1.910331e-06	2.569227e-06	
14.825525	2.935861e-06	1.732199e-05	1.930071e-06	2.613671e-06	
14.826526	3.050616e-06	1.723256e-05	1.950598e-06	2.657385e-06	
14.827526	3.158472e-06	1.712450e-05	1.971865e-06	2.700351e-06	
14.828527	3.259610e-06	1.699850e-05	1.993824e-06	2.742550e-06	
14.829528	3.354212e-06	1.685528e-05	2.016427e-06	2.783965e-06	
14.830529	3.442460e-06	1.669551e-05	2.039627e-06	2.824578e-06	
14.831530	3.524535e-06	1.651990e-05	2.063376e-06	2.864370e-06	
14.832531	3.600619e-06	1.632915e-05	2.087627e-06	2.903325e-06	
14.833531	3.670894e-06	1.612394e-05	2.112331e-06	2.941422e-06	
14.834532	3.735541e-06	1.590497e-05	2.137441e-06	2.978646e-06	
14.835533	3.794742e-06	1.567295e-05	2.162909e-06	3.014977e-06	
14.836534	3.848679e-06	1.542856e-05	2.188689e-06	3.050398e-06	
14.837535	3.897533e-06	1.517251e-05	2.214731e-06	3.084890e-06	
14.838535	3.941486e-06	1.490548e-05	2.240989e-06	3.118437e-06	
14.839536	3.980720e-06	1.462817e-05	2.267415e-06	3.151018e-06	
14.840537	4.015417e-06	1.434129e-05	2.293961e-06	3.182618e-06	
14.841538	4.045757e-06	1.404551e-05	2.320580e-06	3.213217e-06	
14.842539	4.071923e-06	1.374155e-05	2.347223e-06	3.242798e-06	
14.843539	4.094097e-06	1.343009e-05	2.373843e-06	3.271342e-06	
14.844540	4.112459e-06	1.311184e-05	2.400394e-06	3.298832e-06	
14.845541	4.127192e-06	1.278748e-05	2.426826e-06	3.325250e-06	
14.846542	4.138478e-06	1.245772e-05	2.453092e-06	3.350577e-06	
14.847543	4.146498e-06	1.212325e-05	2.479145e-06	3.374796e-06	
14.848544	4.151433e-06	1.178476e-05	2.504937e-06	3.397888e-06	
14.849544	4.153466e-06	1.144295e-05	2.530420e-06	3.419836e-06	
14.850545	4.152778e-06	1.109851e-05	2.555547e-06	3.440622e-06	
14.851546	4.149551e-06	1.075215e-05	2.580270e-06	3.460227e-06	
14.852547	4.143966e-06	1.040456e-05	2.604542e-06	3.478634e-06	
14.853548	4.136205e-06	1.005643e-05	2.628314e-06	3.495825e-06	
14.854548	4.126450e-06	9.708462e-06	2.651539e-06	3.511781e-06	
14.855549	4.114882e-06	9.361347e-06	2.674169e-06	3.526484e-06	
14.856550	4.101684e-06	9.015784e-06	2.696158e-06	3.539917e-06	
14.857551	4.087036e-06	8.672467e-06	2.717456e-06	3.552062e-06	
14.858552	4.071121e-06	8.332092e-06	2.738017e-06	3.562900e-06	
14.859552	4.054119e-06	7.995355e-06	2.757793e-06	3.572414e-06	
14.860553	4.036214e-06	7.662953e-06	2.776736e-06	3.580585e-06	
14.861554	4.017586e-06	7.335580e-06	2.794798e-06	3.587396e-06	
14.862555	3.998417e-06	7.013932e-06	2.811933e-06	3.592829e-06	
14.863556	3.978889e-06	6.698706e-06	2.828091e-06	3.596864e-06	
14.864557	3.959183e-06	6.390596e-06	2.843226e-06	3.599486e-06	
14.865557	3.939482e-06	6.090299e-06	2.857290e-06	3.600675e-06	
14.866558	3.919966e-06	5.798511e-06	2.870236e-06	3.600413e-06	
14.867559	3.900818e-06	5.515927e-06	2.882015e-06	3.598683e-06	
14.868560	3.882219e-06	5.243242e-06	2.892580e-06	3.595467e-06	
14.869561	3.864351e-06	4.981154e-06	2.901883e-06	3.590746e-06	
14.870561	3.847395e-06	4.730357e-06	2.909877e-06	3.584502e-06	
14.871562	3.831533e-06	4.491547e-06	2.916514e-06	3.576718e-06	
14.872563	3.816947e-06	4.265420e-06	2.921746e-06	3.567376e-06	
14.873564	3.803819e-06	4.052672e-06	2.925526e-06	3.556457e-06	
14.874565	3.792330e-06	3.853998e-06	2.927806e-06	3.543943e-06	
14.875566	3.782610e-06	3.669906e-06	2.928557e-06	3.529833e-06	
14.876566	3.774618e-06	3.500266e-06	2.927810e-06	3.514181e-06	
14.877567	3.768274e-06	3.344817e-06	2.925610e-06	3.497049e-06	
14.878568	3.763500e-06	3.203295e-06	2.922003e-06	3.478504e-06	
14.879569	3.760217e-06	3.075439e-06	2.917032e-06	3.458610e-06	
14.880570	3.758347e-06	2.960985e-06	2.910743e-06	3.437431e-06	
14.881570	3.757810e-06	2.859672e-06	2.903180e-06	3.415033e-06	
14.882571	3.758529e-06	2.771237e-06	2.894389e-06	3.391479e-06	
14.883572	3.760425e-06	2.695418e-06	2.884413e-06	3.366835e-06	
14.884573	3.763418e-06	2.631953e-06	2.873298e-06	3.341166e-06	
14.885574	3.767431e-06	2.580578e-06	2.861088e-06	3.314535e-06	
14.886574	3.772385e-06	2.541031e-06	2.847828e-06	3.287007e-06	
14.887575	3.778200e-06	2.513051e-06	2.833564e-06	3.258648e-06	
14.888576	3.784799e-06	2.496374e-06	2.818338e-06	3.229522e-06	
14.889577	3.792103e-06	2.490738e-06	2.802198e-06	3.199693e-06	
14.890578	3.800032e-06	2.495882e-06	2.785187e-06	3.169227e-06	
14.891579	3.808509e-06	2.511541e-06	2.767349e-06	3.138188e-06	
14.892579	3.817455e-06	2.537455e-06	2.748730e-06	3.106640e-06	
14.893580	3.826791e-06	2.573360e-06	2.729375e-06	3.074648e-06	
14.894581	3.836438e-06	2.618995e-06	2.709328e-06	3.042277e-06	
14.895582	3.846318e-06	2.674096e-06	2.688634e-06	3.009592e-06	
14.896583	3.856352e-06	2.738401e-06	2.667338e-06	2.976656e-06	
14.897583	3.866462e-06	2.811648e-06	2.645485e-06	2.943536e-06	
14.898584	3.876568e-06	2.893575e-06	2.623119e-06	2.910296e-06	
14.899585	3.886593e-06	2.983919e-06	2.600285e-06	2.876999e-06	
14.900586	3.896457e-06	3.082418e-06	2.577027e-06	2.843711e-06	
14.901587	3.906083e-06	3.188809e-06	2.553392e-06	2.810497e-06	
14.902587	3.915390e-06	3.302829e-06	2.529422e-06	2.777422e-06	
14.903588	3.924301e-06	3.424218e-06	2.505164e-06	2.744549e-06	
14.904589	3.932737e-06	3.552711e-06	2.480662e-06	2.711943e-06	
14.905590	3.940619e-06	3.688046e-06	2.455961e-06	2.679670e-06	
14.906591	3.947869e-06	3.829962e-06	2.431105e-06	2.647793e-06	
14.907592	3.954407e-06	3.978196e-06	2.406139e-06	2.616379e-06	
14.908592	3.960157e-06	4.132485e-06	2.381108e-06	2.585490e-06	
14.909593	3.965037e-06	4.292567e-06	2.356057e-06	2.555192e-06	
14.910594	3.968971e-06	4.458180e-06	2.331030e-06	2.525550e-06	
14.911595	3.971879e-06	4.629060e-06	2.306073e-06	2.496628e-06	
14.912596	3.973683e-06	4.804947e-06	2.281229e-06	2.468491e-06	
14.913596	3.974304e-06	4.985576e-06	2.256545e-06	2.441203e-06	
14.914597	3.973663e-06	5.170687e-06	2.232064e-06	2.414830e-06	
14.915598	3.971682e-06	5.360016e-06	2.207831e-06	2.389435e-06	
14.916599	3.968282e-06	5.553301e-06	2.183891e-06	2.365084e-06	
14.917600	3.963385e-06	5.750280e-06	2.160289e-06	2.341841e-06	
14.918600	3.956911e-06	5.950690e-06	2.137070e-06	2.319771e-06	
14.919601	3.948783e-06	6.154268e-06	2.114278e-06	2.298939e-06	
14.920602	3.938921e-06	6.360754e-06	2.091959e-06	2.279409e-06	
14.921603	3.927247e-06	6.569883e-06	2.070156e-06	2.261245e-06	
14.922604	3.913682e-06	6.781393e-06	2.048915e-06	2.244513e-06	
14.923605	3.898148e-06	6.995023e-06	2.028280e-06	2.229278e-06	
14.924605	3.880565e-06	7.210510e-06	2.008297e-06	2.215603e-06	
14.925606	3.860895e-06	7.427625e-06	1.988997e-06	2.203529e-06	
14.926607	3.839215e-06	7.646244e-06	1.970377e-06	2.193024e-06	
14.927608	3.815622e-06	7.866260e-06	1.952425e-06	2.184040e-06	
14.928609	3.790216e-06	8.087567e-06	1.935130e-06	2.176533e-06	
14.929609	3.763095e-06	8.310058e-06	1.918481e-06	2.170456e-06	
14.930610	3.734358e-06	8.533628e-06	1.902468e-06	2.165762e-06	
14.931611	3.704105e-06	8.758170e-06	1.887079e-06	2.162405e-06	
14.932612	3.672432e-06	8.983577e-06	1.872303e-06	2.160339e-06	
14.933613	3.639439e-06	9.209745e-06	1.858129e-06	2.159518e-06	
14.934614	3.605225e-06	9.436565e-06	1.844546e-06	2.159896e-06	
14.935614	3.569889e-06	9.663933e-06	1.831543e-06	2.161426e-06	
14.936615	3.533528e-06	9.891741e-06	1.819109e-06	2.164062e-06	
14.937616	3.496243e-06	1.011988e-05	1.807233e-06	2.167758e-06	
14.938617	3.458130e-06	1.034825e-05	1.795904e-06	2.172468e-06	
14.939618	3.419290e-06	1.057675e-05	1.785110e-06	2.178145e-06	
14.940618	3.379820e-06	1.080526e-05	1.774841e-06	2.184744e-06	
14.941619	3.339820e-06	1.103367e-05	1.765086e-06	2.192217e-06	
14.942620	3.299388e-06	1.126190e-05	1.755833e-06	2.200519e-06	
14.943621	3.258623e-06	1.148981e-05	1.747071e-06	2.209604e-06	
14.944622	3.217623e-06	1.171732e-05	1.738791e-06	2.219426e-06	
14.945622	3.176487e-06	1.194432e-05	1.730979e-06	2.229937e-06	
14.946623	3.135314e-06	1.217069e-05	1.723626e-06	2.241092e-06	
14.947624	3.094202e-06	1.239633e-05	1.716720e-06	2.252845e-06	
14.948625	3.053250e-06	1.262114e-05	1.710251e-06	2.265149e-06	
14.949626	3.012557e-06	1.284501e-05	1.704207e-06	2.277959e-06	
14.950627	2.972222e-06	1.306783e-05	1.698577e-06	2.291228e-06	
14.951627	2.932342e-06	1.328950e-05	1.693350e-06	2.304909e-06	
14.952628	2.893018e-06	1.350991e-05	1.688515e-06	2.318957e-06	
14.953629	2.854346e-06	1.372895e-05	1.684061e-06	2.333325e-06	
14.954630	2.816427e-06	1.394652e-05	1.679977e-06	2.347967e-06	
14.955631	2.779359e-06	1.416251e-05	1.676252e-06	2.362838e-06	
14.956631	2.743240e-06	1.437682e-05	1.672874e-06	2.377889e-06	
14.957632	2.708169e-06	1.458934e-05	1.669834e-06	2.393077e-06	
14.958633	2.674245e-06	1.479996e-05	1.667119e-06	2.408353e-06	
14.959634	2.641567e-06	1.500857e-05	1.664719e-06	2.423673e-06	
14.960635	2.610232e-06	1.521508e-05	1.662623e-06	2.438989e-06	
14.961635	2.580340e-06	1.541937e-05	1.660819e-06	2.454255e-06	
14.962636	2.551990e-06	1.562134e-05	1.659296e-06	2.469426e-06	
14.963637	2.525280e-06	1.582088e-05	1.658044e-06	2.484455e-06	
14.964638	2.500309e-06	1.601789e-05	1.657052e-06	2.499296e-06	
14.965639	2.477175e-06	1.621225e-05	1.656308e-06	2.513903e-06	
14.966640	2.455977e-06	1.640387e-05	1.655801e-06	2.528229e-06	
14.967640	2.436814e-06	1.659264e-05	1.655520e-06	2.542228e-06	
14.968641	2.419785e-06	1.677844e-05	1.655455e-06	2.555854e-06	
14.969642	2.404988e-06	1.696118e-05	1.655594e-06	2.569061e-06	
14.970643	2.392521e-06	1.714075e-05	1.655926e-06	2.581802e-06	
14.971644	2.382484e-06	1.731704e-05	1.656440e-06	2.594032e-06	
14.972644	2.374976e-06	1.748994e-05	1.657125e-06	2.605703e-06	
14.973645	2.370094e-06	1.765935e-05	1.657970e-06	2.616771e-06	
14.974646	2.367937e-06	1.782517e-05	1.658963e-06	2.627188e-06	
14.975647	2.368558e-06	1.798739e-05	1.660097e-06	2.636926e-06	
14.976648	2.371883e-06	1.814631e-05	1.661366e-06	2.646005e-06	
14.977648	2.377820e-06	1.830229e-05	1.662768e-06	2.654451e-06	
14.978649	2.386277e-06	1.845565e-05	1.664299e-06	2.662291e-06	
14.979650	2.397159e-06	1.860675e-05	1.665957e-06	2.669552e-06	
14.980651	2.410375e-06	1.875593e-05	1.667737e-06	2.676260e-06	
14.981652	2.425831e-06	1.890353e-05	1.669638e-06	2.682444e-06	
14.982653	2.443434e-06	1.904989e-05	1.671655e-06	2.688128e-06	
14.983653	2.463093e-06	1.919537e-05	1.673786e-06	2.693342e-06	
14.984654	2.484713e-06	1.934031e-05	1.676027e-06	2.698110e-06	
14.985655	2.508203e-06	1.948504e-05	1.678375e-06	2.702460e-06	
14.986656	2.533468e-06	1.962991e-05	1.680827e-06	2.706419e-06	
14.987657	2.560417e-06	1.977528e-05	1.683380e-06	2.710014e-06	
14.988657	2.588957e-06	1.992147e-05	1.686030e-06	2.713271e-06	
14.989658	2.618994e-06	2.006884e-05	1.688775e-06	2.716218e-06	
14.990659	2.650436e-06	2.021773e-05	1.691611e-06	2.718881e-06	
14.991660	2.683189e-06	2.036848e-05	1.694536e-06	2.721287e-06	
14.992661	2.717162e-06	2.052143e-05	1.697545e-06	2.723463e-06	
14.993662	2.752262e-06	2.067694e-05	1.700636e-06	2.725436e-06	
14.994662	2.788394e-06	2.083535e-05	1.703805e-06	2.727233e-06	
14.995663	2.825467e-06	2.099699e-05	1.707050e-06	2.728880e-06	
14.996664	2.863388e-06	2.116222e-05	1.710367e-06	2.730404e-06	
14.997665	2.902064e-06	2.133137e-05	1.713754e-06	2.731833e-06	
14.998666	2.941402e-06	2.150479e-05	1.717206e-06	2.733192e-06	
14.999666	2.981308e-06	2.168283e-05	1.720720e-06	2.734510e-06	
15.000667	3.021692e-06	2.186583e-05	1.724295e-06	2.735812e-06	
15.001668	3.062458e-06	2.205413e-05	1.727925e-06	2.737125e-06	
15.002669	3.103515e-06	2.224808e-05	1.731609e-06	2.738478e-06	
15.003670	3.144770e-06	2.244802e-05	1.735342e-06	2.739895e-06	
15.004670	3.186130e-06	2.265430e-05	1.739123e-06	2.741404e-06	
15.005671	3.227502e-06	2.286725e-05	1.742947e-06	2.743033e-06	
15.006672	3.268793e-06	2.308723e-05	1.746811e-06	2.744807e-06	
15.007673	3.309910e-06	2.331457e-05	1.750713e-06	2.746754e-06	
15.008674	3.350761e-06	2.354963e-05	1.754649e-06	2.748901e-06	
15.009675	3.391253e-06	2.379274e-05	1.758616e-06	2.751274e-06	
15.010675	3.431292e-06	2.404424e-05	1.762610e-06	2.753900e-06	
15.011676	3.470787e-06	2.430450e-05	1.766629e-06	2.756806e-06	
15.012677	3.509643e-06	2.457384e-05	1.770669e-06	2.760019e-06	
15.013678	3.547769e-06	2.485261e-05	1.774728e-06	2.763565e-06	
15.014679	3.585071e-06	2.514115e-05	1.778801e-06	2.767473e-06	
15.015679	3.621456e-06	2.543982e-05	1.782887e-06	2.771767e-06	
15.016680	3.656833e-06	2.574895e-05	1.786981e-06	2.776477e-06	
15.017681	3.691107e-06	2.606888e-05	1.791081e-06	2.781627e-06	
15.018682	3.724186e-06	2.639997e-05	1.795182e-06	2.787245e-06	
15.019683	3.755977e-06	2.674255e-05	1.799283e-06	2.793358e-06	
15.020683	3.786388e-06	2.709697e-05	1.803380e-06	2.799993e-06	
15.021684	3.815325e-06	2.746357e-05	1.807470e-06	2.807176e-06	
15.022685	3.842696e-06	2.784270e-05	1.811549e-06	2.814935e-06	
15.023686	3.868407e-06	2.823470e-05	1.815615e-06	2.823295e-06	
15.024687	3.892366e-06	2.863992e-05	1.819664e-06	2.832285e-06	
15.025688	3.914521e-06	2.905844e-05	1.823693e-06	2.841914e-06	
15.026688	3.934915e-06	2.948977e-05	1.827696e-06	2.852153e-06	
15.027689	3.953602e-06	2.993333e-05	1.831668e-06	2.862968e-06	
15.028690	3.970641e-06	3.038852e-05	1.835604e-06	2.874323e-06	
15.029691	3.986087e-06	3.085477e-05	1.839499e-06	2.886183e-06	
15.030692	3.999997e-06	3.133148e-05	1.843348e-06	2.898515e-06	
15.031692	4.012427e-06	3.181808e-05	1.847145e-06	2.911283e-06	
15.032693	4.023433e-06	3.231398e-05	1.850886e-06	2.924452e-06	
15.033694	4.033072e-06	3.281860e-05	1.854564e-06	2.937988e-06	
15.034695	4.041401e-06	3.333135e-05	1.858175e-06	2.951855e-06	
15.035696	4.048474e-06	3.385164e-05	1.861713e-06	2.966020e-06	
15.036697	4.054350e-06	3.437890e-05	1.865174e-06	2.980446e-06	
15.037697	4.059084e-06	3.491253e-05	1.868551e-06	2.995101e-06	
15.038698	4.062733e-06	3.545196e-05	1.871841e-06	3.009948e-06	
15.039699	4.065352e-06	3.599660e-05	1.875037e-06	3.024953e-06	
15.040700	4.066999e-06	3.654586e-05	1.878135e-06	3.040081e-06	
15.041701	4.067730e-06	3.709916e-05	1.881128e-06	3.055297e-06	
15.042701	4.067601e-06	3.765591e-05	1.884013e-06	3.070567e-06	
15.043702	4.066668e-06	3.821553e-05	1.886783e-06	3.085855e-06	
15.044703	4.064988e-06	3.877744e-05	1.889434e-06	3.101128e-06	
15.045704	4.062617e-06	3.934105e-05	1.891960e-06	3.116350e-06	
15.046705	4.059612e-06	3.990578e-05	1.894356e-06	3.131486e-06	
15.047705	4.056029e-06	4.047104e-05	1.896617e-06	3.146502e-06	
15.048706	4.051924e-06	4.103624e-05	1.898738e-06	3.161363e-06	
15.049707	4.047353e-06	4.160081e-05	1.900713e-06	3.176034e-06	
15.050708	4.042374e-06	4.216416e-05	1.902537e-06	3.190480e-06	
15.051709	4.037042e-06	4.272570e-05	1.904205e-06	3.204667e-06	
15.052710	4.031414e-06	4.328485e-05	1.905712e-06	3.218560e-06	
15.053710	4.025546e-06	4.384102e-05	1.907053e-06	3.232123e-06	
15.054711	4.019495e-06	4.439364e-05	1.908221e-06	3.245323e-06	
15.055712	4.013317e-06	4.494210e-05	1.909213e-06	3.258124e-06	
15.056713	4.007067e-06	4.548584e-05	1.910023e-06	3.270491e-06	
15.057714	4.000804e-06	4.602427e-05	1.910645e-06	3.282391e-06	
15.058714	3.994582e-06	4.655680e-05	1.911075e-06	3.293787e-06	
15.059715	3.988458e-06	4.708284e-05	1.911306e-06	3.304646e-06	
15.060716	3.982490e-06	4.760182e-05	1.911335e-06	3.314932e-06	
15.061717	3.976732e-06	4.811315e-05	1.911156e-06	3.324611e-06	
15.062718	3.971242e-06	4.861623e-05	1.910763e-06	3.333648e-06	
15.063718	3.966076e-06	4.911050e-05	1.910151e-06	3.342008e-06	
15.064719	3.961290e-06	4.959536e-05	1.909315e-06	3.349657e-06	
15.065720	3.956940e-06	5.007023e-05	1.908251e-06	3.356559e-06	
15.066721	3.953083e-06	5.053453e-05	1.906952e-06	3.362680e-06	
15.067722	3.949776e-06	5.098767e-05	1.905413e-06	3.367985e-06	
15.068723	3.947074e-06	5.142906e-05	1.903629e-06	3.372439e-06	
15.069723	3.945035e-06	5.185813e-05	1.901596e-06	3.376007e-06	
15.070724	3.943713e-06	5.227428e-05	1.899307e-06	3.378655e-06	
15.071725	3.943167e-06	5.267693e-05	1.896758e-06	3.380348e-06	
15.072726	3.943451e-06	5.306550e-05	1.893943e-06	3.381052e-06	
15.073727	3.944623e-06	5.343941e-05	1.890857e-06	3.380730e-06	
15.074727	3.946739e-06	5.379806e-05	1.887495e-06	3.379349e-06	
15.075728	3.949827e-06	5.414105e-05	1.883859e-06	3.376895e-06	
15.076729	3.953861e-06	5.446832e-05	1.879965e-06	3.373394e-06	
15.077730	3.958805e-06	5.477985e-05	1.875831e-06	3.368882e-06	
15.078731	3.964625e-06	5.507564e-05	1.871475e-06	3.363391e-06	
15.079731	3.971284e-06	5.535567e-05	1.866916e-06	3.356954e-06	
15.080732	3.978750e-06	5.561993e-05	1.862172e-06	3.349606e-06	
15.081733	3.986986e-06	5.586841e-05	1.857261e-06	3.341380e-06	
15.082734	3.995958e-06	5.610110e-05	1.852201e-06	3.332309e-06	
15.083735	4.005630e-06	5.631798e-05	1.847010e-06	3.322427e-06	
15.084736	4.015969e-06	5.651905e-05	1.841707e-06	3.311768e-06	
15.085736	4.026938e-06	5.670428e-05	1.836310e-06	3.300364e-06	
15.086737	4.038503e-06	5.687368e-05	1.830837e-06	3.288249e-06	
15.087738	4.050630e-06	5.702722e-05	1.825306e-06	3.275457e-06	
15.088739	4.063283e-06	5.716489e-05	1.819736e-06	3.262022e-06	
15.089740	4.076427e-06	5.728669e-05	1.814144e-06	3.247977e-06	
15.090740	4.090027e-06	5.739260e-05	1.808549e-06	3.233354e-06	
15.091741	4.104049e-06	5.748261e-05	1.802969e-06	3.218189e-06	
15.092742	4.118458e-06	5.755671e-05	1.797422e-06	3.202514e-06	
15.093743	4.133218e-06	5.761489e-05	1.791927e-06	3.186363e-06	
15.094744	4.148295e-06	5.765712e-05	1.786501e-06	3.169769e-06	
15.095745	4.163654e-06	5.768341e-05	1.781163e-06	3.152767e-06	
15.096745	4.179260e-06	5.769374e-05	1.775932e-06	3.135388e-06	
15.097746	4.195077e-06	5.768809e-05	1.770824e-06	3.117667e-06	
15.098747	4.211072e-06	5.766647e-05	1.765859e-06	3.099638e-06	
15.099748	4.227209e-06	5.762884e-05	1.761055e-06	3.081334e-06	
15.100749	4.243453e-06	5.757521e-05	1.756429e-06	3.062788e-06	
15.101749	4.259770e-06	5.750556e-05	1.752000e-06	3.044034e-06	
15.102750	4.276124e-06	5.741987e-05	1.747787e-06	3.025105e-06	
15.103751	4.292480e-06	5.731814e-05	1.743807e-06	3.006035e-06	
15.104752	4.308804e-06	5.720036e-05	1.740079e-06	2.986858e-06	
15.105753	4.325061e-06	5.706651e-05	1.736621e-06	2.967606e-06	
15.106753	4.341216e-06	5.691658e-05	1.733450e-06	2.948314e-06	
15.107754	4.357233e-06	5.675055e-05	1.730586e-06	2.929015e-06	
15.108755	4.373078e-06	5.656843e-05	1.728047e-06	2.909742e-06	
15.109756	4.388717e-06	5.637018e-05	1.725850e-06	2.890529e-06	
15.110757	4.404113e-06	5.615582e-05	1.724013e-06	2.871409e-06	
15.111758	4.419233e-06	5.592531e-05	1.722556e-06	2.852417e-06	
15.112758	4.434041e-06	5.567865e-05	1.721497e-06	2.833584e-06	
15.113759	4.448502e-06	5.541582e-05	1.720852e-06	2.814946e-06	
15.114760	4.462582e-06	5.513683e-05	1.720642e-06	2.796535e-06	
15.115761	4.476246e-06	5.484164e-05	1.720883e-06	2.778385e-06	
15.116762	4.489458e-06	5.453026e-05	1.721594e-06	2.760530e-06	
15.117762	4.502183e-06	5.420266e-05	1.722794e-06	2.743002e-06	
15.118763	4.514388e-06	5.385885e-05	1.724500e-06	2.725836e-06	
15.119764	4.526036e-06	5.349879e-05	1.726730e-06	2.709065e-06	
15.120765	4.537094e-06	5.312250e-05	1.729504e-06	2.692722e-06	
15.121766	4.547525e-06	5.272994e-05	1.732839e-06	2.676841e-06	
15.122766	4.557296e-06	5.232111e-05	1.736753e-06	2.661455e-06	
15.123767	4.566371e-06	5.189600e-05	1.741264e-06	2.646599e-06	
15.124768	4.574715e-06	5.145460e-05	1.746391e-06	2.632305e-06	
15.125769	4.582323e-06	5.099712e-05	1.752136e-06	2.618592e-06	
15.126770	4.589245e-06	5.052422e-05	1.758473e-06	2.605455e-06	
15.127771	4.595534e-06	5.003658e-05	1.765372e-06	2.592883e-06	
15.128771	4.601245e-06	4.953491e-05	1.772804e-06	2.580866e-06	
15.129772	4.606435e-06	4.901990e-05	1.780739e-06	2.569396e-06	
15.130773	4.611158e-06	4.849223e-05	1.789147e-06	2.558462e-06	
15.131774	4.615468e-06	4.795262e-05	1.798000e-06	2.548054e-06	
15.132775	4.619421e-06	4.740175e-05	1.807267e-06	2.538163e-06	
15.133775	4.623072e-06	4.684032e-05	1.816918e-06	2.528780e-06	
15.134776	4.626476e-06	4.626901e-05	1.826925e-06	2.519894e-06	
15.135777	4.629687e-06	4.568854e-05	1.837257e-06	2.511496e-06	
15.136778	4.632762e-06	4.509959e-05	1.847885e-06	2.503576e-06	
15.137779	4.635754e-06	4.450286e-05	1.858780e-06	2.496125e-06	
15.138779	4.638718e-06	4.389904e-05	1.869912e-06	2.489132e-06	
15.139780	4.641711e-06	4.328882e-05	1.881250e-06	2.482589e-06	
15.140781	4.644786e-06	4.267291e-05	1.892767e-06	2.476485e-06	
15.141782	4.647999e-06	4.205200e-05	1.904432e-06	2.470811e-06	
15.142783	4.651405e-06	4.142677e-05	1.916215e-06	2.465558e-06	
15.143784	4.655058e-06	4.079794e-05	1.928087e-06	2.460714e-06	
15.144784	4.659014e-06	4.016619e-05	1.940019e-06	2.456271e-06	
15.145785	4.663327e-06	3.953221e-05	1.951980e-06	2.452220e-06	
15.146786	4.668054e-06	3.889671e-05	1.963941e-06	2.448550e-06	
15.147787	4.673248e-06	3.826037e-05	1.975874e-06	2.445251e-06	
15.148788	4.678964e-06	3.762389e-05	1.987747e-06	2.442315e-06	
15.149788	4.685258e-06	3.698797e-05	1.999532e-06	2.439731e-06	
15.150789	4.692185e-06	3.635330e-05	2.011198e-06	2.437489e-06	
15.151790	4.699800e-06	3.572058e-05	2.022717e-06	2.435581e-06	
15.152791	4.708157e-06	3.509050e-05	2.034059e-06	2.433996e-06	
15.153792	4.717311e-06	3.446376e-05	2.045193e-06	2.432724e-06	
15.154793	4.727318e-06	3.384105e-05	2.056092e-06	2.431757e-06	
15.155793	4.738233e-06	3.322306e-05	2.066724e-06	2.431084e-06	
15.156794	4.750110e-06	3.261050e-05	2.077061e-06	2.430695e-06	
15.157795	4.763005e-06	3.200405e-05	2.087072e-06	2.430582e-06	
15.158796	4.776972e-06	3.140441e-05	2.096729e-06	2.430733e-06	
15.159797	4.792067e-06	3.081228e-05	2.106001e-06	2.431141e-06	
15.160797	4.808345e-06	3.022835e-05	2.114860e-06	2.431794e-06	
15.161798	4.825859e-06	2.965331e-05	2.123275e-06	2.432683e-06	
15.162799	4.844667e-06	2.908787e-05	2.131216e-06	2.433799e-06	
15.163800	4.864822e-06	2.853271e-05	2.138656e-06	2.435131e-06	
15.164801	4.886379e-06	2.798853e-05	2.145563e-06	2.436671e-06	
15.165801	4.909394e-06	2.745603e-05	2.151908e-06	2.438409e-06	
15.166802	4.933921e-06	2.693589e-05	2.157662e-06	2.440334e-06	
15.167803	4.960016e-06	2.642883e-05	2.162794e-06	2.442437e-06	
15.168804	4.987733e-06	2.593552e-05	2.167276e-06	2.444709e-06	
15.169805	5.017127e-06	2.545667e-05	2.171078e-06	2.447139e-06	
15.170806	5.048254e-06	2.499297e-05	2.174171e-06	2.449719e-06	
15.171806	5.081168e-06	2.454511e-05	2.176524e-06	2.452438e-06	
15.172807	5.115925e-06	2.411380e-05	2.178108e-06	2.455286e-06	
15.173808	5.152579e-06	2.369972e-05	2.178893e-06	2.458255e-06	
15.174809	5.191185e-06	2.330356e-05	2.178851e-06	2.461335e-06	
15.175810	5.231732e-06	2.292564e-05	2.177973e-06	2.464581e-06	
15.176810	5.274102e-06	2.256565e-05	2.176286e-06	2.468155e-06	
15.177811	5.318165e-06	2.222320e-05	2.173820e-06	2.472228e-06	
15.178812	5.363794e-06	2.189791e-05	2.170606e-06	2.476974e-06	
15.179813	5.410859e-06	2.158941e-05	2.166674e-06	2.482565e-06	
15.180814	5.459230e-06	2.129732e-05	2.162056e-06	2.489172e-06	
15.181814	5.508780e-06	2.102125e-05	2.156781e-06	2.496969e-06	
15.182815	5.559378e-06	2.076082e-05	2.150879e-06	2.506127e-06	
15.183816	5.610896e-06	2.051567e-05	2.144382e-06	2.516818e-06	
15.184817	5.663206e-06	2.028541e-05	2.137320e-06	2.529215e-06	
15.185818	5.716177e-06	2.006966e-05	2.129724e-06	2.543491e-06	
15.186819	5.769682e-06	1.986804e-05	2.121623e-06	2.559816e-06	
15.187819	5.823590e-06	1.968017e-05	2.113048e-06	2.578365e-06	
15.188820	5.877773e-06	1.950568e-05	2.104030e-06	2.599308e-06	
15.189821	5.932103e-06	1.934418e-05	2.094600e-06	2.622818e-06	
15.190822	5.986450e-06	1.919530e-05	2.084787e-06	2.649067e-06	
15.191823	6.040684e-06	1.905865e-05	2.074623e-06	2.678228e-06	
15.192823	6.094678e-06	1.893387e-05	2.064137e-06	2.710473e-06	
15.193824	6.148302e-06	1.882056e-05	2.053360e-06	2.745973e-06	
15.194825	6.201427e-06	1.871835e-05	2.042324e-06	2.784902e-06	
15.195826	6.253924e-06	1.862686e-05	2.031057e-06	2.827432e-06	
15.196827	6.305665e-06	1.854572e-05	2.019591e-06	2.873735e-06	
15.197828	6.356519e-06	1.847453e-05	2.007957e-06	2.923982e-06	
15.198828	6.406359e-06	1.841294e-05	1.996184e-06	2.978347e-06	
15.199829	6.455055e-06	1.836054e-05	1.984303e-06	3.037001e-06	
15.200830	6.502478e-06	1.831697e-05	1.972344e-06	3.100117e-06	
15.201831	6.548500e-06	1.828185e-05	1.960339e-06	3.167868e-06	
15.202832	6.592990e-06	1.825480e-05	1.948318e-06	3.240424e-06	
15.203832	6.635821e-06	1.823544e-05	1.936310e-06	3.317959e-06	
15.204833	6.676864e-06	1.822338e-05	1.924347e-06	3.400645e-06	
15.205834	6.715988e-06	1.821826e-05	1.912460e-06	3.488654e-06	
15.206835	6.753066e-06	1.821969e-05	1.900677e-06	3.582158e-06	
15.207836	6.787968e-06	1.822729e-05	1.889031e-06	3.681330e-06	
15.208836	6.820566e-06	1.824068e-05	1.877552e-06	3.786342e-06	
15.209837	6.850730e-06	1.825949e-05	1.866269e-06	3.897365e-06	
15.210838	6.878331e-06	1.828334e-05	1.855214e-06	4.014573e-06	
15.211839	6.903240e-06	1.831184e-05	1.844416e-06	4.138138e-06	
15.212840	6.925330e-06	1.834462e-05	1.833908e-06	4.268231e-06	
15.213841	6.944469e-06	1.838130e-05	1.823718e-06	4.405025e-06	
15.214841	6.960530e-06	1.842150e-05	1.813878e-06	4.548693e-06	
15.215842	6.973383e-06	1.846484e-05	1.804417e-06	4.699406e-06	
15.216843	6.982900e-06	1.851095e-05	1.795367e-06	4.857337e-06	
15.217844	6.988951e-06	1.855943e-05	1.786758e-06	5.022658e-06	
15.218845	6.991408e-06	1.860992e-05	1.778620e-06	5.195541e-06	
15.219845	6.990142e-06	1.866204e-05	1.770984e-06	5.376159e-06	
15.220846	6.985022e-06	1.871540e-05	1.763881e-06	5.564683e-06	
15.221847	6.975922e-06	1.876962e-05	1.757340e-06	5.761287e-06	
15.222848	6.962711e-06	1.882434e-05	1.751393e-06	5.966142e-06	
15.223849	6.945260e-06	1.887916e-05	1.746069e-06	6.179420e-06	
15.224849	6.923443e-06	1.893372e-05	1.741400e-06	6.401290e-06	
15.225850	6.897239e-06	1.898776e-05	1.737400e-06	6.631686e-06	
15.226851	6.866791e-06	1.904121e-05	1.734067e-06	6.870188e-06	
15.227852	6.832253e-06	1.909404e-05	1.731392e-06	7.116346e-06	
15.228853	6.793781e-06	1.914620e-05	1.729368e-06	7.369711e-06	
15.229854	6.751531e-06	1.919763e-05	1.727991e-06	7.629835e-06	
15.230854	6.705657e-06	1.924830e-05	1.727251e-06	7.896266e-06	
15.231855	6.656315e-06	1.929816e-05	1.727144e-06	8.168557e-06	
15.232856	6.603660e-06	1.934716e-05	1.727662e-06	8.446258e-06	
15.233857	6.547847e-06	1.939525e-05	1.728799e-06	8.728920e-06	
15.234858	6.489033e-06	1.944240e-05	1.730548e-06	9.016092e-06	
15.235858	6.427372e-06	1.948855e-05	1.732902e-06	9.307327e-06	
15.236859	6.363019e-06	1.953365e-05	1.735854e-06	9.602174e-06	
15.237860	6.296130e-06	1.957767e-05	1.739398e-06	9.900184e-06	
15.238861	6.226861e-06	1.962055e-05	1.743528e-06	1.020091e-05	
15.239862	6.155366e-06	1.966225e-05	1.748236e-06	1.050390e-05	
15.240862	6.081800e-06	1.970273e-05	1.753516e-06	1.080870e-05	
15.241863	6.006320e-06	1.974193e-05	1.759361e-06	1.111487e-05	
15.242864	5.929081e-06	1.977981e-05	1.765764e-06	1.142196e-05	
15.243865	5.850237e-06	1.981633e-05	1.772719e-06	1.172951e-05	
15.244866	5.769945e-06	1.985143e-05	1.780220e-06	1.203708e-05	
15.245867	5.688359e-06	1.988508e-05	1.788258e-06	1.234422e-05	
15.246867	5.605634e-06	1.991722e-05	1.796829e-06	1.265048e-05	
15.247868	5.521927e-06	1.994781e-05	1.805924e-06	1.295540e-05	
15.248869	5.437393e-06	1.997681e-05	1.815538e-06	1.325855e-05	
15.249870	5.352186e-06	2.000416e-05	1.825664e-06	1.355947e-05	
15.250871	5.266463e-06	2.002983e-05	1.836295e-06	1.385771e-05	
15.251871	5.180377e-06	2.005376e-05	1.847424e-06	1.415283e-05	
15.252872	5.094086e-06	2.007591e-05	1.859044e-06	1.444436e-05	
15.253873	5.007744e-06	2.009623e-05	1.871150e-06	1.473188e-05	
15.254874	4.921506e-06	2.011468e-05	1.883734e-06	1.501491e-05	
15.255875	4.835528e-06	2.013122e-05	1.896789e-06	1.529302e-05	
15.256876	4.749966e-06	2.014578e-05	1.910310e-06	1.556576e-05	
15.257876	4.664973e-06	2.015834e-05	1.924288e-06	1.583267e-05	
15.258877	4.580707e-06	2.016883e-05	1.938718e-06	1.609331e-05	
15.259878	4.497321e-06	2.017723e-05	1.953594e-06	1.634723e-05	
15.260879	4.414972e-06	2.018347e-05	1.968907e-06	1.659397e-05	
15.261880	4.333815e-06	2.018752e-05	1.984652e-06	1.683309e-05	
15.262880	4.254004e-06	2.018932e-05	2.000821e-06	1.706415e-05	
15.263881	4.175697e-06	2.018884e-05	2.017409e-06	1.728668e-05	
15.264882	4.099047e-06	2.018603e-05	2.034408e-06	1.750025e-05	
15.265883	4.024210e-06	2.018083e-05	2.051812e-06	1.770440e-05	
15.266884	3.951341e-06	2.017320e-05	2.069614e-06	1.789868e-05	
15.267884	3.880596e-06	2.016311e-05	2.087808e-06	1.808264e-05	
15.268885	3.812130e-06	2.015049e-05	2.106386e-06	1.825583e-05	
15.269886	3.746099e-06	2.013531e-05	2.125342e-06	1.841781e-05	
15.270887	3.682657e-06	2.011752e-05	2.144670e-06	1.856813e-05	
15.271888	3.621961e-06	2.009707e-05	2.164362e-06	1.870633e-05	
15.272889	3.564164e-06	2.007392e-05	2.184413e-06	1.883197e-05	
15.273889	3.509424e-06	2.004802e-05	2.204814e-06	1.894459e-05	
15.274890	3.457892e-06	2.001932e-05	2.225561e-06	1.904376e-05	
15.275891	3.409627e-06	1.998788e-05	2.246644e-06	1.912943e-05	
15.276892	3.364560e-06	1.995387e-05	2.268054e-06	1.920207e-05	
15.277893	3.322609e-06	1.991746e-05	2.289782e-06	1.926220e-05	
15.278893	3.283697e-06	1.987885e-05	2.311818e-06	1.931034e-05	
15.279894	3.247743e-06	1.983820e-05	2.334151e-06	1.934699e-05	
15.280895	3.214668e-06	1.979571e-05	2.356774e-06	1.937268e-05	
15.281896	3.184392e-06	1.975156e-05	2.379675e-06	1.938792e-05	
15.282897	3.156837e-06	1.970592e-05	2.402846e-06	1.939324e-05	
15.283897	3.131921e-06	1.965897e-05	2.426276e-06	1.938913e-05	
15.284898	3.109567e-06	1.961091e-05	2.449956e-06	1.937612e-05	
15.285899	3.089694e-06	1.956191e-05	2.473877e-06	1.935473e-05	
15.286900	3.072223e-06	1.951214e-05	2.498028e-06	1.932547e-05	
15.287901	3.057074e-06	1.946181e-05	2.522401e-06	1.928885e-05	
15.288902	3.044168e-06	1.941107e-05	2.546984e-06	1.924540e-05	
15.289902	3.033426e-06	1.936013e-05	2.571770e-06	1.919562e-05	
15.290903	3.024767e-06	1.930915e-05	2.596747e-06	1.914004e-05	
15.291904	3.018113e-06	1.925832e-05	2.621907e-06	1.907916e-05	
15.292905	3.013384e-06	1.920782e-05	2.647240e-06	1.901351e-05	
15.293906	3.010500e-06	1.915784e-05	2.672736e-06	1.894360e-05	
15.294906	3.009382e-06	1.910855e-05	2.698385e-06	1.886994e-05	
15.295907	3.009951e-06	1.906013e-05	2.724178e-06	1.879306e-05	
15.296908	3.012126e-06	1.901277e-05	2.750105e-06	1.871346e-05	
15.297909	3.015829e-06	1.896665e-05	2.776157e-06	1.863167e-05	
15.298910	3.020979e-06	1.892195e-05	2.802324e-06	1.854819e-05	
15.299910	3.027498e-06	1.887886e-05	2.828596e-06	1.846355e-05	
15.300911	3.035306e-06	1.883754e-05	2.854963e-06	1.837825e-05	
15.301912	3.044323e-06	1.879819e-05	2.881417e-06	1.829283e-05	
15.302913	3.054470e-06	1.876099e-05	2.907946e-06	1.820778e-05	
15.303914	3.065668e-06	1.872612e-05	2.934543e-06	1.812363e-05	
15.304915	3.077836e-06	1.869375e-05	2.961196e-06	1.804089e-05	
15.305915	3.090896e-06	1.866407e-05	2.987897e-06	1.796008e-05	
15.306916	3.104767e-06	1.863727e-05	3.014635e-06	1.788172e-05	
15.307917	3.119371e-06	1.861352e-05	3.041401e-06	1.780631e-05	
15.308918	3.134628e-06	1.859301e-05	3.068186e-06	1.773438e-05	
15.309919	3.150459e-06	1.857591e-05	3.094979e-06	1.766644e-05	
15.310919	3.166783e-06	1.856241e-05	3.121772e-06	1.760300e-05	
15.311920	3.183521e-06	1.855269e-05	3.148554e-06	1.754459e-05	
15.312921	3.200595e-06	1.854693e-05	3.175315e-06	1.749172e-05	
15.313922	3.217923e-06	1.854532e-05	3.202047e-06	1.744489e-05	
15.314923	3.235428e-06	1.854803e-05	3.228740e-06	1.740464e-05	
15.315924	3.253029e-06	1.855524e-05	3.255383e-06	1.737147e-05	
15.316924	3.270647e-06	1.856715e-05	3.281967e-06	1.734591e-05	
15.317925	3.288202e-06	1.858392e-05	3.308483e-06	1.732845e-05	
15.318926	3.305615e-06	1.860574e-05	3.334921e-06	1.731963e-05	
15.319927	3.322806e-06	1.863279e-05	3.361271e-06	1.731996e-05	
15.320928	3.339697e-06	1.866526e-05	3.387523e-06	1.732995e-05	
15.321928	3.356206e-06	1.870332e-05	3.413669e-06	1.735012e-05	
15.322929	3.372256e-06	1.874716e-05	3.439697e-06	1.738099e-05	
15.323930	3.387766e-06	1.879696e-05	3.465600e-06	1.742306e-05	
15.324931	3.402658e-06	1.885289e-05	3.491366e-06	1.747685e-05	
15.325932	3.416901e-06	1.891497e-05	3.516977e-06	1.754241e-05	
15.326932	3.430521e-06	1.898302e-05	3.542405e-06	1.761926e-05	
15.327933	3.443547e-06	1.905685e-05	3.567619e-06	1.770691e-05	
15.328934	3.456008e-06	1.913626e-05	3.592591e-06	1.780483e-05	
15.329935	3.467933e-06	1.922106e-05	3.617291e-06	1.791251e-05	
15.330936	3.479353e-06	1.931105e-05	3.641689e-06	1.802946e-05	
15.331937	3.490296e-06	1.940605e-05	3.665756e-06	1.815514e-05	
15.332937	3.500791e-06	1.950586e-05	3.689463e-06	1.828907e-05	
15.333938	3.510868e-06	1.961028e-05	3.712779e-06	1.843072e-05	
15.334939	3.520556e-06	1.971912e-05	3.735675e-06	1.857958e-05	
15.335940	3.529885e-06	1.983220e-05	3.758122e-06	1.873515e-05	
15.336941	3.538883e-06	1.994931e-05	3.780090e-06	1.889692e-05	
15.337941	3.547580e-06	2.007026e-05	3.801550e-06	1.906437e-05	
15.338942	3.556005e-06	2.019487e-05	3.822473e-06	1.923699e-05	
15.339943	3.564188e-06	2.032293e-05	3.842828e-06	1.941428e-05	
15.340944	3.572157e-06	2.045425e-05	3.862586e-06	1.959572e-05	
15.341945	3.579943e-06	2.058865e-05	3.881718e-06	1.978081e-05	
15.342945	3.587574e-06	2.072592e-05	3.900194e-06	1.996904e-05	
15.343946	3.595079e-06	2.086587e-05	3.917984e-06	2.015988e-05	
15.344947	3.602489e-06	2.100831e-05	3.935060e-06	2.035284e-05	
15.345948	3.609831e-06	2.115306e-05	3.951391e-06	2.054741e-05	
15.346949	3.617137e-06	2.129990e-05	3.966949e-06	2.074307e-05	
15.347950	3.624434e-06	2.144866e-05	3.981703e-06	2.093931e-05	
15.348950	3.631752e-06	2.159913e-05	3.995624e-06	2.113562e-05	
15.349951	3.639120e-06	2.175113e-05	4.008682e-06	2.133150e-05	
15.350952	3.646569e-06	2.190445e-05	4.020849e-06	2.152643e-05	
15.351953	3.654126e-06	2.205892e-05	4.032094e-06	2.171991e-05	
15.352954	3.661821e-06	2.221433e-05	4.042388e-06	2.191141e-05	
15.353954	3.669684e-06	2.237049e-05	4.051702e-06	2.210044e-05	
15.354955	3.677744e-06	2.252721e-05	4.060005e-06	2.228649e-05	
15.355956	3.686030e-06	2.268429e-05	4.067269e-06	2.246903e-05	
15.356957	3.694571e-06	2.284154e-05	4.073464e-06	2.264757e-05	
15.357958	3.703397e-06	2.299877e-05	4.078561e-06	2.282159e-05	
15.358959	3.712537e-06	2.315579e-05	4.082529e-06	2.299058e-05	
15.359959	3.722020e-06	2.331240e-05	4.085340e-06	2.315403e-05	
15.360960	3.731876e-06	2.346840e-05	4.086963e-06	2.331143e-05	
15.361961	3.742134e-06	2.362361e-05	4.087370e-06	2.346228e-05	
15.362962	3.752823e-06	2.377783e-05	4.086531e-06	2.360606e-05	
15.363963	3.763972e-06	2.393087e-05	4.084416e-06	2.374226e-05	
15.364963	3.775611e-06	2.408254e-05	4.080996e-06	2.387037e-05	
15.365964	3.787769e-06	2.423263e-05	4.076241e-06	2.398988e-05	
15.366965	3.800475e-06	2.438097e-05	4.070122e-06	2.410028e-05	
15.367966	3.813759e-06	2.452735e-05	4.062609e-06	2.420106e-05	
15.368967	3.827649e-06	2.467158e-05	4.053673e-06	2.429171e-05	
15.369967	3.842176e-06	2.481347e-05	4.043285e-06	2.437172e-05	
15.370968	3.857368e-06	2.495283e-05	4.031414e-06	2.444058e-05	
15.371969	3.873255e-06	2.508946e-05	4.018031e-06	2.449779e-05	
15.372970	3.889866e-06	2.522317e-05	4.003107e-06	2.454282e-05	
15.373971	3.907231e-06	2.535376e-05	3.986612e-06	2.457517e-05	
15.374972	3.925377e-06	2.548107e-05	3.968519e-06	2.459435e-05	
15.375972	3.944310e-06	2.560554e-05	3.948858e-06	2.460029e-05	
15.376973	3.964008e-06	2.572830e-05	3.927726e-06	2.459343e-05	
15.377974	3.984449e-06	2.585050e-05	3.905219e-06	2.457421e-05	
15.378975	4.005612e-06	2.597331e-05	3.881436e-06	2.454308e-05	
15.379976	4.027472e-06	2.609789e-05	3.856476e-06	2.450049e-05	
15.380976	4.050009e-06	2.622539e-05	3.830436e-06	2.444687e-05	
15.381977	4.073200e-06	2.635697e-05	3.803415e-06	2.438270e-05	
15.382978	4.097022e-06	2.649380e-05	3.775511e-06	2.430840e-05	
15.383979	4.121454e-06	2.663703e-05	3.746823e-06	2.422443e-05	
15.384980	4.146472e-06	2.678783e-05	3.717447e-06	2.413124e-05	
15.385980	4.172054e-06	2.694735e-05	3.687484e-06	2.402927e-05	
15.386981	4.198179e-06	2.711675e-05	3.657030e-06	2.391898e-05	
15.387982	4.224823e-06	2.729720e-05	3.626184e-06	2.380081e-05	
15.388983	4.251965e-06	2.748984e-05	3.595045e-06	2.367521e-05	
15.389984	4.279582e-06	2.769585e-05	3.563710e-06	2.354262e-05	
15.390985	4.307651e-06	2.791637e-05	3.532279e-06	2.340350e-05	
15.391985	4.336150e-06	2.815258e-05	3.500848e-06	2.325829e-05	
15.392986	4.365058e-06	2.840563e-05	3.469516e-06	2.310745e-05	
15.393987	4.394351e-06	2.867667e-05	3.438381e-06	2.295141e-05	
15.394988	4.424007e-06	2.896688e-05	3.407543e-06	2.279064e-05	
15.395989	4.454005e-06	2.927740e-05	3.377098e-06	2.262556e-05	
15.396989	4.484321e-06	2.960940e-05	3.347145e-06	2.245664e-05	
15.397990	4.514933e-06	2.996404e-05	3.317783e-06	2.228433e-05	
15.398991	4.545818e-06	3.034247e-05	3.289109e-06	2.210906e-05	
15.399992	4.576956e-06	3.074586e-05	3.261222e-06	2.193129e-05	
15.400993	4.608322e-06	3.117537e-05	3.234220e-06	2.175147e-05	
15.401993	4.639896e-06	3.163215e-05	3.208201e-06	2.157004e-05	
15.402994	4.671653e-06	3.211737e-05	3.183263e-06	2.138745e-05	
15.403995	4.703573e-06	3.263218e-05	3.159505e-06	2.120416e-05	
15.404996	4.735633e-06	3.317775e-05	3.137025e-06	2.102060e-05	
15.405997	4.767810e-06	3.375523e-05	3.115921e-06	2.083723e-05	
15.406998	4.800082e-06	3.436578e-05	3.096291e-06	2.065449e-05	
15.407998	4.832426e-06	3.501057e-05	3.078234e-06	2.047283e-05	
15.408999	4.864821e-06	3.569075e-05	3.061848e-06	2.029271e-05	
15.410000	4.897244e-06	3.640748e-05	3.047230e-06	2.011456e-05	
