14.180000	-8.053995e-06	-4.502825e-05	-5.301211e-06	7.799460e-06	
14.181001	-6.408129e-06	-6.148477e-05	-7.684774e-06	7.341601e-06	
14.182002	-1.914163e-06	-4.055016e-05	-3.841167e-06	4.199189e-06	
14.183002	-2.020333e-06	-1.913291e-05	-1.754947e-06	5.189906e-06	
14.184003	-4.023916e-06	8.588356e-06	-4.667816e-06	-3.246309e-06	
14.185004	-3.957658e-06	-8.971538e-06	-2.937210e-06	-6.179614e-06	
14.186005	-5.723174e-06	2.226453e-05	4.110054e-07	5.382471e-06	
14.187006	-9.824152e-06	7.379971e-05	1.416671e-06	1.043364e-05	
14.188007	-1.004661e-05	1.921630e-05	-3.796485e-06	3.806312e-06	
14.189007	-5.037966e-06	-3.797293e-05	-8.228008e-06	-1.457836e-06	
14.190008	-3.185970e-06	-4.175326e-05	-4.267821e-06	-4.701657e-06	
14.191009	-4.919475e-06	-3.889424e-05	-4.880056e-06	-2.703027e-05	
14.192010	-1.080590e-06	-4.365585e-05	-4.886931e-06	-4.371355e-05	
14.193011	4.060868e-06	-7.194748e-05	-8.118410e-07	-2.804250e-05	
14.194011	5.163677e-06	-8.727699e-05	-1.829773e-06	-1.615271e-05	
14.195012	5.210610e-06	-5.602718e-05	-7.429458e-07	-1.859669e-05	
14.196013	5.239394e-06	-2.057157e-05	2.850959e-06	-2.458127e-05	
14.197014	1.146953e-05	-2.396683e-05	4.734598e-06	-2.782204e-05	
14.198015	1.962713e-05	-2.294184e-05	3.459541e-06	-2.170895e-05	
14.199015	1.743134e-05	4.748614e-05	2.962209e-06	-1.751140e-05	
14.200016	1.267578e-05	1.072433e-04	7.290036e-06	-8.542809e-06	
14.201017	1.052132e-05	7.876685e-05	6.257097e-06	7.888754e-06	
14.202018	4.048616e-06	5.263189e-05	3.989321e-06	1.520002e-05	
14.203019	-1.294694e-06	4.725220e-05	8.077840e-06	1.080846e-05	
14.204020	-1.309330e-06	9.999232e-06	9.037605e-06	5.300777e-06	
14.205020	-2.573938e-06	-6.006702e-06	6.706568e-06	1.126120e-05	
14.206021	-4.455904e-06	2.398646e-05	4.214358e-06	1.949706e-05	
14.207022	-5.978239e-06	4.641645e-05	-6.219285e-07	1.773640e-05	
14.208023	-8.446498e-06	3.442477e-05	-3.633010e-06	1.558892e-05	
14.209024	-6.878277e-06	-9.740066e-08	-4.137270e-06	1.672367e-05	
14.210024	-4.710892e-06	-2.992288e-05	-5.754151e-06	1.577546e-05	
14.211025	-8.245907e-06	-3.716141e-05	-4.614398e-06	1.688935e-05	
14.212026	-9.703954e-06	-3.248629e-05	-1.679094e-06	2.089664e-05	
14.213027	-3.889954e-06	-3.042279e-05	-6.641666e-06	2.240714e-05	
14.214028	-1.357434e-06	-4.444458e-05	-1.145187e-05	2.471884e-05	
14.215028	-5.261829e-06	-5.215845e-05	-3.526967e-06	3.095710e-05	
14.216029	-3.961193e-06	-4.708930e-05	3.844871e-06	4.082680e-05	
14.217030	-1.923034e-06	-7.815202e-05	3.327657e-06	4.368317e-05	
14.218031	-6.713252e-06	-1.031633e-04	3.728586e-06	3.493239e-05	
14.219032	-7.430772e-06	-8.215949e-05	4.243055e-06	2.780612e-05	
14.220033	-4.283471e-06	-4.134202e-05	2.882765e-06	8.261423e-06	
14.221033	-2.278042e-06	-1.055528e-05	7.005474e-07	-3.718732e-05	
14.222034	-1.410274e-06	-1.231834e-05	6.650944e-07	-7.797038e-05	
14.223035	-5.085567e-06	-1.440615e-05	1.741870e-06	-8.294716e-05	
14.224036	-4.608724e-06	1.731639e-05	-9.535246e-07	-6.834913e-05	
14.225037	1.052591e-06	1.927486e-04	-2.283137e-06	-6.023169e-05	
14.226037	4.083360e-06	3.634592e-04	-4.033266e-06	-4.579241e-05	
14.227038	6.922190e-06	2.265990e-04	-1.025070e-05	-2.512196e-05	
14.228039	8.597020e-06	5.290349e-05	-1.234521e-05	-9.148750e-06	
14.229040	8.302016e-06	4.440479e-05	-6.391305e-06	6.081330e-06	
14.230041	7.009034e-06	7.420446e-06	5.464373e-06	1.441862e-05	
14.231041	7.448708e-06	-3.353718e-05	1.113322e-05	2.036860e-05	
14.232042	1.000804e-05	-3.590627e-05	2.561434e-07	2.337296e-05	
14.233043	1.316592e-05	-3.973036e-05	-1.053740e-05	1.478518e-05	
14.234044	1.686269e-05	-4.797456e-05	-1.092802e-05	6.006300e-06	
14.235045	1.270504e-05	-1.066015e-04	-9.496065e-06	-2.464110e-06	
14.236046	5.444837e-06	-1.618618e-04	-3.287160e-07	-1.059011e-05	
14.237046	-2.374771e-06	-1.495927e-04	1.549298e-05	-1.898862e-06	
14.238047	-1.181068e-05	-1.241519e-04	1.954839e-05	1.603652e-05	
14.239048	-9.876251e-06	-7.206091e-05	1.397577e-05	2.216261e-05	
14.240049	-1.141221e-05	-6.648031e-06	1.112551e-05	1.846460e-05	
14.241050	-1.905988e-05	-2.140350e-05	7.913085e-06	1.502863e-05	
14.242050	-1.513901e-05	-4.883307e-05	1.744465e-06	1.073246e-05	
14.243051	-1.339057e-05	-1.573261e-05	-1.167539e-06	4.509860e-06	
14.244052	-1.518544e-05	2.001864e-05	-7.087719e-07	1.272866e-06	
14.245053	-9.255900e-06	8.039045e-05	-1.034009e-06	1.035724e-06	
14.246054	-1.085667e-06	1.329537e-04	-1.326835e-06	2.264569e-06	
14.247055	4.474683e-06	1.158164e-04	-1.462824e-06	4.114568e-06	
14.248055	1.164686e-05	1.350071e-04	-3.580984e-06	3.100057e-06	
14.249056	1.745093e-05	1.425432e-04	-6.936993e-06	-8.873382e-07	
14.250057	1.027135e-05	6.666586e-05	-6.189669e-06	-4.350232e-06	
14.251058	-5.503806e-07	9.989926e-06	-2.928134e-06	-4.076285e-06	
14.252059	-4.646544e-06	-2.867799e-05	-4.293262e-06	7.645958e-07	
14.253059	-6.281786e-06	-5.557809e-05	-4.342198e-06	8.897389e-06	
14.254060	-5.736873e-06	-6.027522e-05	-8.213626e-08	1.504727e-05	
14.255061	-3.374570e-06	-5.837176e-05	1.782042e-06	1.626170e-05	
14.256062	7.285081e-07	-5.660939e-05	1.426162e-06	7.009669e-06	
14.257063	5.376785e-06	-8.506950e-05	6.528465e-07	-1.456317e-05	
14.258063	9.438338e-06	-9.085494e-05	1.419029e-06	-1.917506e-05	
14.259064	1.356215e-05	-4.756152e-05	1.474347e-06	-1.724775e-06	
14.260065	1.654422e-05	1.571070e-05	-1.091993e-06	5.031854e-06	
14.261066	1.890376e-05	8.201181e-05	8.840546e-07	-3.575044e-06	
14.262067	2.205447e-05	7.242876e-05	3.952217e-06	-1.773097e-05	
14.263068	2.358907e-05	7.182387e-08	2.161470e-06	-2.161863e-05	
14.264068	1.899917e-05	-7.891334e-06	2.005140e-06	-1.311550e-05	
14.265069	1.369860e-05	4.199277e-05	9.810966e-07	-7.699766e-06	
14.266070	1.256997e-05	5.343526e-05	-4.745920e-06	1.912524e-06	
14.267071	9.077376e-06	2.522650e-05	-6.886047e-06	4.530373e-06	
14.268072	2.120280e-06	-1.198790e-05	-7.859452e-06	-3.557776e-06	
14.269072	-5.904523e-06	-3.825455e-05	-1.076425e-05	-1.975107e-06	
14.270073	-1.327049e-05	-3.419094e-05	-7.879369e-06	-1.970764e-06	
14.271074	-1.663744e-05	-3.102855e-05	-3.824964e-06	-2.060838e-06	
14.272075	-2.218000e-05	-4.194359e-05	-2.346648e-06	2.667205e-06	
14.273076	-2.976264e-05	-2.182481e-05	1.649457e-06	2.218023e-07	
14.274076	-2.833032e-05	2.201717e-05	3.729449e-06	4.096996e-07	
14.275077	-2.518803e-05	1.689473e-05	3.318151e-07	5.465713e-06	
14.276078	-2.409805e-05	-1.383005e-05	2.398846e-06	8.204216e-06	
14.277079	-1.854273e-05	-1.228113e-05	1.325730e-05	1.108259e-05	
14.278080	-1.737824e-05	-1.520407e-05	1.316867e-05	1.277832e-05	
14.279081	-1.980812e-05	-1.497416e-05	6.555756e-06	1.422568e-05	
14.280081	-1.872476e-05	7.617337e-06	8.374123e-06	1.477237e-05	
14.281082	-1.616931e-05	1.318609e-05	1.733783e-06	1.074611e-05	
14.282083	-1.109030e-05	-5.056273e-07	-6.769457e-06	8.211953e-06	
14.283084	-4.376347e-06	-1.424581e-05	-2.670764e-06	6.311550e-06	
14.284085	1.181318e-06	-1.517303e-05	2.451122e-06	3.091067e-06	
14.285085	4.475077e-06	-1.166828e-05	5.604316e-06	1.204116e-05	
14.286086	6.446279e-06	-1.207582e-05	5.247115e-06	1.929650e-05	
14.287087	9.881318e-06	-5.322080e-06	3.530241e-06	-2.915270e-06	
14.288088	1.438145e-05	1.073645e-05	9.402142e-07	-3.442599e-05	
14.289089	1.637152e-05	2.805322e-05	-5.220026e-06	-4.469337e-05	
14.290090	1.734405e-05	3.379432e-05	-5.418240e-06	-3.566644e-05	
14.291090	1.861650e-05	5.302033e-05	-3.432740e-06	-1.882362e-05	
14.292091	1.730214e-05	6.739677e-05	-5.269206e-06	-4.236005e-06	
14.293092	1.718328e-05	3.150646e-05	-4.039433e-06	-1.933677e-06	
14.294093	1.627859e-05	4.904391e-06	3.830486e-08	-7.698915e-06	
14.295094	8.914890e-06	7.305651e-06	2.177272e-06	-5.121272e-06	
14.296094	3.243779e-06	-1.053091e-06	2.136479e-06	5.706361e-06	
14.297095	3.309738e-06	-9.433705e-06	1.735894e-07	1.229704e-05	
14.298096	2.616411e-06	-1.313908e-05	-5.508409e-06	7.394332e-06	
14.299097	2.788909e-06	-1.519019e-05	-6.861977e-06	-4.516404e-06	
14.300098	5.396294e-06	-1.352950e-05	2.147404e-07	-7.301841e-06	
14.301098	6.507559e-06	-1.174015e-05	4.066105e-06	1.325863e-06	
14.302099	1.006635e-05	-8.030505e-06	2.662040e-06	9.105678e-06	
14.303100	1.222717e-05	-7.983041e-06	1.678199e-06	9.635073e-06	
14.304101	8.731166e-06	-1.127537e-05	-1.135119e-07	7.895474e-06	
14.305102	1.020871e-05	-7.933241e-06	-4.194019e-06	7.249612e-06	
14.306103	1.310632e-05	-6.368225e-06	-6.253347e-06	4.577634e-06	
14.307103	9.190613e-06	-1.028253e-05	-3.430656e-06	4.203834e-06	
14.308104	5.063575e-06	-1.081688e-05	2.385143e-06	4.774374e-06	
14.309105	8.385727e-07	-8.845268e-06	5.565075e-06	2.681743e-06	
14.310106	-9.104354e-06	-3.930520e-06	2.302181e-07	1.975939e-06	
14.311107	-1.688454e-05	-3.176157e-06	-3.907378e-06	1.032442e-06	
14.312107	-1.435371e-05	-7.362460e-06	-1.816739e-06	-9.985081e-07	
14.313108	-1.500643e-05	-3.956859e-06	-4.486609e-06	-3.413474e-06	
14.314109	-2.123430e-05	1.017160e-06	-8.011241e-06	-8.269896e-07	
14.315110	-1.373335e-05	-2.116482e-07	-3.870273e-06	7.789865e-06	
14.316111	-3.854493e-06	-2.428723e-06	2.412738e-06	1.371945e-05	
14.317111	-6.450406e-06	7.846473e-07	5.071369e-06	2.015952e-05	
14.318112	-6.740281e-06	3.908690e-06	4.694974e-06	2.327147e-05	
14.319113	-6.092909e-06	2.082242e-06	4.965795e-06	1.919726e-05	
14.320114	-8.829883e-06	4.705638e-06	6.708233e-06	1.410061e-05	
14.321115	-7.591677e-06	6.606709e-06	4.884122e-06	1.143717e-06	
14.322116	-5.218107e-06	1.328444e-06	2.863461e-06	-1.731716e-05	
14.323116	-3.631184e-06	-5.842953e-07	4.351333e-06	-3.588820e-05	
14.324117	-4.589168e-06	1.304458e-06	2.586563e-06	-3.859091e-05	
14.325118	-6.954752e-06	1.403421e-06	1.951401e-06	-1.194808e-05	
14.326119	-5.028535e-06	1.443968e-06	3.793676e-06	-1.320399e-06	
14.327120	-8.185909e-07	2.728950e-06	3.174393e-06	-1.553227e-05	
14.328120	-8.598571e-07	4.398265e-06	4.371889e-06	-1.389910e-05	
14.329121	-3.472692e-06	2.973712e-06	4.323276e-06	-1.207398e-05	
14.330122	-4.284774e-08	-2.005539e-06	1.692823e-06	-1.664117e-05	
14.331123	2.352145e-06	1.267931e-06	-2.458597e-06	-1.000866e-05	
14.332124	1.216638e-06	1.489943e-05	-8.935922e-06	-4.703501e-06	
14.333124	5.444042e-06	1.544873e-05	-1.099036e-05	-1.006502e-06	
14.334125	8.044604e-06	-1.057333e-06	-1.015006e-05	6.402334e-06	
14.335126	9.295520e-06	-1.378788e-05	-8.419229e-06	1.028903e-05	
14.336127	1.064184e-05	-1.742374e-05	-5.939048e-06	1.086437e-05	
14.337128	6.143592e-06	3.244291e-07	-1.013765e-05	1.282386e-05	
14.338129	4.331907e-06	2.255300e-05	-1.336404e-05	1.584902e-05	
14.339129	6.124474e-06	4.623764e-06	-5.771677e-06	1.432194e-05	
14.340130	4.556499e-06	-1.743110e-05	5.651298e-06	1.009501e-05	
14.341131	2.624672e-08	-1.196129e-05	1.286633e-05	8.901118e-06	
14.342132	-4.607896e-06	-9.075028e-06	1.233131e-05	1.510620e-05	
14.343133	-3.295461e-06	-7.007225e-06	7.296188e-06	1.869918e-05	
14.344133	-1.981798e-07	-2.651486e-06	5.177445e-06	8.401708e-06	
14.345134	-5.787191e-07	-1.664551e-06	6.086505e-06	6.934700e-06	
14.346135	2.436526e-06	2.800705e-06	3.652877e-06	6.299192e-06	
14.347136	4.729707e-06	5.935473e-06	3.518835e-07	-1.794896e-05	
14.348137	3.718585e-06	5.431428e-06	1.766402e-06	-2.561750e-05	
14.349138	6.712430e-06	3.594251e-06	6.739072e-07	-1.079980e-05	
14.350138	5.426223e-06	5.347074e-06	-3.618632e-06	-1.182357e-05	
14.351139	7.130203e-07	7.788720e-06	-2.756068e-06	-1.215537e-05	
14.352140	3.244955e-06	4.177265e-06	4.149212e-07	1.467174e-06	
14.353141	4.329139e-06	5.286110e-06	5.520206e-07	9.625489e-06	
14.354142	4.501818e-07	6.279547e-06	-1.543102e-06	6.789912e-06	
14.355142	-1.889095e-06	1.291615e-07	-5.268667e-06	4.031898e-06	
14.356143	-1.770458e-06	2.119237e-06	-7.721337e-06	7.765581e-06	
14.357144	-2.066172e-06	8.462587e-06	-3.771950e-06	5.735956e-06	
14.358145	-3.241306e-06	1.046183e-05	2.511516e-06	-2.306853e-06	
14.359146	-2.232101e-06	8.119911e-06	5.317532e-06	-3.972516e-06	
14.360146	-7.988303e-07	-3.273080e-06	4.381476e-06	-1.096574e-07	
14.361147	9.104547e-07	-1.028043e-05	-4.630010e-07	-9.409179e-07	
14.362148	-5.262282e-07	-4.681505e-06	-2.069717e-06	-1.144241e-05	
14.363149	-5.853546e-06	-1.958559e-06	-2.033842e-07	-2.053002e-05	
14.364150	-5.047458e-06	-4.937082e-06	-1.128680e-06	-2.059447e-05	
14.365151	-2.846467e-06	-6.935003e-06	2.212535e-06	-1.301206e-05	
14.366151	-5.362996e-06	-7.353455e-06	5.769575e-06	-5.746253e-06	
14.367152	-4.707390e-06	-7.142043e-06	2.056931e-06	-2.847321e-06	
14.368153	1.447576e-06	-6.338792e-06	1.033977e-07	2.422928e-06	
14.369154	7.925748e-06	-7.170884e-07	-3.127846e-07	4.719989e-06	
14.370155	9.351568e-06	-1.780732e-06	-2.612101e-06	7.191423e-06	
14.371155	4.662604e-06	-1.598793e-05	-2.120086e-06	1.306634e-05	
14.372156	-1.484632e-06	-1.776184e-05	4.901208e-07	1.034853e-05	
14.373157	-3.182271e-06	-5.497068e-06	2.139132e-07	7.103920e-06	
14.374158	8.140288e-07	2.221952e-06	-3.254283e-06	8.515294e-06	
14.375159	6.116426e-06	5.942930e-06	-3.450062e-06	8.663871e-06	
14.376159	5.816307e-06	6.838621e-06	-1.032633e-06	9.388183e-06	
14.377160	-8.401770e-07	6.207822e-06	-1.232245e-06	6.792656e-06	
14.378161	-5.239629e-06	5.437648e-06	-1.606326e-06	4.757785e-06	
14.379162	-5.343805e-06	4.348053e-06	-3.077343e-06	7.057947e-06	
14.380163	-6.298409e-06	4.344793e-06	-4.389886e-06	1.645056e-06	
14.381164	-7.534793e-06	3.477579e-06	2.778856e-07	-6.002755e-06	
14.382164	-3.303199e-06	2.834462e-06	6.788972e-06	-2.364979e-06	
14.383165	7.805668e-06	2.391455e-06	8.523417e-06	1.146172e-06	
14.384166	1.093117e-05	1.148344e-07	5.584037e-06	-5.356146e-07	
14.385167	-2.416424e-06	-1.424355e-06	4.035970e-06	-4.429754e-07	
14.386168	-1.936854e-05	-1.605065e-06	4.161316e-06	-2.728160e-06	
14.387168	-2.961710e-05	-2.133472e-06	1.887601e-06	-4.095199e-06	
14.388169	-2.613734e-05	-1.086858e-06	-4.712713e-08	-2.291310e-06	
14.389170	-2.293736e-05	1.817542e-06	-1.867288e-06	-3.407041e-06	
14.390171	-2.637060e-05	1.978766e-06	-2.842884e-06	-5.769628e-06	
14.391172	7.187485e-06	2.031573e-06	-1.848844e-06	-4.392688e-06	
14.392172	5.268986e-05	6.738136e-06	-1.182886e-06	5.556777e-08	
14.393173	3.834816e-05	6.947568e-06	7.426893e-08	-2.157266e-06	
14.394174	6.563891e-06	9.950664e-07	-3.722619e-07	-6.068692e-06	
14.395175	4.775903e-07	7.962706e-07	-2.412125e-06	-2.827905e-06	
14.396176	-7.525286e-06	3.090586e-06	-2.983988e-06	-2.929099e-06	
14.397177	-1.672322e-05	9.162015e-07	-4.578017e-06	-3.737886e-06	
14.398177	-3.636380e-05	-2.857600e-06	-8.485951e-06	5.791073e-07	
14.399178	-3.575749e-05	-4.807345e-06	-9.603704e-06	-1.369146e-08	
14.400179	4.239776e-05	-2.870894e-06	-4.991657e-06	-1.825354e-06	
14.401180	9.698772e-05	-6.024699e-07	-4.235007e-08	1.567713e-06	
14.402181	5.440777e-05	-1.678747e-07	3.157585e-06	3.272525e-06	
14.403181	1.766191e-05	-1.717232e-06	5.649951e-06	3.036883e-06	
14.404182	1.824287e-05	-2.213710e-06	4.666477e-06	1.759395e-06	
14.405183	8.165916e-06	1.206298e-06	3.699031e-06	-3.690870e-07	
14.406184	-4.438190e-06	2.426476e-06	5.088084e-06	7.187138e-07	
14.407185	-1.463876e-05	1.834634e-06	4.401405e-06	2.278172e-06	
14.408186	-2.443166e-05	2.348586e-06	3.975210e-06	2.781349e-06	
14.409186	-2.415368e-05	2.179872e-06	3.523256e-06	3.477273e-06	
14.410187	-2.342075e-05	-8.456291e-07	-2.115866e-07	1.681174e-06	
14.411188	-1.961912e-05	-4.046575e-06	-1.557796e-06	-1.493606e-06	
14.412189	-8.040171e-06	-2.475989e-06	1.183664e-06	-3.358739e-06	
14.413190	-5.154349e-06	-2.020926e-06	2.847475e-06	-4.282970e-06	
14.414190	-9.605058e-06	-3.520045e-06	2.433408e-06	-1.879747e-06	
14.415191	-1.449872e-05	-3.960302e-06	1.505658e-06	-3.030897e-08	
14.416192	-1.291294e-05	-4.642365e-06	2.677372e-07	-2.087930e-06	
14.417193	4.721370e-06	-3.918159e-06	-1.933169e-06	-3.170734e-07	
14.418194	3.115630e-06	-5.215275e-06	-4.421920e-06	2.133084e-06	
14.419194	-3.176106e-05	-6.205803e-06	-3.671022e-06	8.049890e-07	
14.420195	-4.735558e-05	-1.702718e-06	-1.894113e-06	1.043879e-06	
14.421196	-2.988635e-05	1.258179e-06	-3.326440e-06	1.650163e-06	
14.422197	-8.689933e-06	2.250929e-06	-3.618841e-06	1.250831e-06	
14.423198	1.118527e-06	5.398348e-06	-2.399937e-06	1.520594e-06	
14.424199	1.347061e-05	5.925483e-06	-2.622090e-06	3.848131e-07	
14.425199	4.846158e-05	5.984289e-06	-2.242821e-06	-4.102991e-07	
14.426200	7.885286e-05	8.634653e-06	-6.565022e-07	3.173602e-06	
14.427201	8.066821e-05	8.281708e-06	1.784733e-06	5.280178e-06	
14.428202	6.191390e-05	4.255095e-06	2.379128e-06	3.867006e-06	
14.429203	3.174453e-05	2.437236e-07	-1.057210e-06	4.892503e-06	
14.430203	1.040151e-05	-1.049255e-06	-2.337862e-06	4.139858e-06	
14.431204	3.773077e-06	-1.582496e-06	1.099388e-06	1.694138e-06	
14.432205	-6.941144e-06	8.917922e-09	2.260999e-06	1.959253e-06	
14.433206	-3.461222e-05	3.696973e-06	1.429531e-06	-6.280992e-07	
14.434207	-6.824839e-05	-1.707624e-07	2.275442e-06	-2.468063e-06	
14.435207	-1.026474e-04	-4.424259e-06	1.130450e-06	-3.326132e-06	
14.436208	-1.271977e-04	-3.151992e-06	-4.524960e-07	-7.955567e-06	
14.437209	-1.186583e-04	-6.375133e-06	1.920200e-06	-7.173695e-06	
14.438210	-8.361341e-05	-7.577775e-06	4.275753e-06	-3.964862e-06	
14.439211	-2.786953e-05	-1.556086e-06	1.944527e-06	-5.195407e-06	
14.440212	8.048563e-06	1.462460e-06	-1.154724e-06	-6.043952e-06	
14.441212	5.329416e-05	1.002369e-06	-1.053745e-06	-4.916213e-06	
14.442213	1.686691e-04	2.542936e-06	-1.703117e-06	-2.334077e-06	
14.443214	1.967811e-04	1.573520e-06	-2.894243e-06	-1.362011e-07	
14.444215	1.155219e-04	-2.127916e-06	-1.184129e-06	2.119893e-07	
14.445216	7.513063e-05	-3.593734e-07	9.918501e-07	-8.514464e-08	
14.446216	4.119766e-05	3.754674e-07	1.355264e-06	3.051388e-06	
14.447217	-1.516038e-06	-2.676872e-06	5.658264e-07	6.469235e-06	
14.448218	-3.814977e-05	-5.850182e-07	1.233187e-06	6.304383e-06	
14.449219	-6.619692e-05	2.101038e-07	3.141189e-06	5.342611e-06	
14.450220	-6.145017e-05	2.337040e-06	3.763355e-06	1.007358e-06	
14.451221	-8.919594e-05	8.573073e-06	2.561595e-06	-3.710867e-07	
14.452221	-1.031945e-04	3.873023e-06	-1.168395e-06	4.107512e-08	
14.453222	-2.177782e-05	-6.835103e-07	-3.153269e-06	-5.715483e-06	
14.454223	4.928725e-05	3.249104e-06	-2.119436e-06	-5.367603e-06	
14.455224	2.387945e-05	1.190294e-06	-2.514712e-06	-1.247766e-06	
14.456225	-2.444127e-05	-9.954785e-07	-2.028325e-06	-2.324176e-06	
14.457225	-9.493635e-07	1.306186e-06	-1.249758e-06	-1.657418e-06	
14.458226	2.391463e-05	4.683204e-07	-1.326374e-06	1.125897e-06	
14.459227	1.088845e-05	-1.105257e-06	-4.779413e-08	2.708889e-06	
14.460228	4.063302e-05	-2.050089e-06	-7.395898e-07	4.710069e-06	
14.461229	4.776762e-05	-6.201391e-06	-1.558474e-06	7.324271e-06	
14.462229	-6.612784e-06	-1.198275e-05	3.661446e-07	4.308847e-06	
14.463230	-2.078182e-05	-1.219303e-05	1.134508e-06	2.587359e-07	
14.464231	1.954818e-05	-8.992190e-06	3.873246e-07	1.677574e-06	
14.465232	2.732082e-05	-4.160016e-06	2.457020e-07	6.314815e-07	
14.466233	-4.723190e-06	9.532201e-06	5.428128e-07	-7.164827e-07	
14.467234	-8.534177e-06	1.072414e-05	9.468416e-07	1.620717e-06	
14.468234	-2.192834e-05	-1.048359e-05	1.544124e-06	2.898719e-06	
14.469235	-3.260137e-05	-1.530042e-05	4.624954e-07	3.458104e-07	
14.470236	1.431041e-05	-3.199272e-06	-9.829193e-07	-2.559391e-06	
14.471237	2.425273e-05	-4.547304e-07	-8.463195e-07	-6.188415e-07	
14.472238	-1.904191e-05	7.022046e-06	-5.283747e-07	-1.692722e-07	
14.473238	-3.803277e-05	1.726297e-05	2.017744e-06	-2.536419e-06	
14.474239	-1.710605e-05	9.279071e-06	3.461023e-06	-8.859617e-07	
14.475240	8.387227e-07	4.861137e-06	4.719629e-07	2.772372e-06	
14.476241	-4.310976e-05	1.277057e-05	-9.572036e-07	5.538661e-06	
14.477242	-7.473251e-05	3.409703e-06	1.059585e-07	4.417784e-06	
14.478242	-6.522469e-05	-1.069864e-05	6.021026e-07	-3.850383e-06	
14.479243	-9.762829e-05	-9.050521e-06	7.875170e-07	-9.874248e-06	
14.480244	-8.887056e-05	1.746779e-06	3.335450e-07	-4.960316e-06	
14.481245	-1.840858e-06	2.412444e-05	-1.865309e-06	1.795229e-06	
14.482246	9.490993e-05	3.324828e-05	-1.889784e-06	1.875890e-06	
14.483247	1.453530e-04	1.485593e-05	-6.575225e-07	-3.521107e-06	
14.484247	5.999245e-05	-1.964734e-06	-2.110589e-06	-7.641921e-06	
14.485248	-2.128879e-05	-7.316035e-06	9.167496e-07	-4.329875e-06	
14.486249	2.002576e-05	-5.462591e-06	3.077554e-06	-1.179672e-06	
14.487250	8.022714e-05	-5.651783e-06	-1.004872e-06	3.245394e-07	
14.488251	1.465832e-04	-9.995896e-06	-1.479583e-07	6.452335e-06	
14.489251	1.505701e-04	-7.366702e-06	-1.470237e-06	5.856269e-06	
14.490252	5.011440e-05	-5.691949e-06	-5.947914e-06	-1.856968e-06	
14.491253	-3.306314e-05	-1.335794e-05	-9.160352e-07	-1.745823e-06	
14.492254	-5.580818e-05	-2.297961e-05	2.816041e-06	2.374366e-06	
14.493255	-3.276738e-05	-2.793218e-05	2.580122e-07	3.416832e-06	
14.494255	6.743939e-07	-2.491814e-05	4.379091e-07	2.321544e-06	
14.495256	8.784900e-06	-1.343947e-05	1.519377e-06	1.626840e-06	
14.496257	7.867430e-06	-3.935014e-06	7.205586e-07	3.063726e-06	
14.497258	-1.310475e-05	5.099311e-06	-4.770279e-07	3.235302e-07	
14.498259	-5.059724e-05	1.438106e-05	-1.576279e-07	-6.201119e-06	
14.499260	-6.822587e-05	1.422769e-05	2.564266e-07	-5.802503e-06	
14.500260	-8.195814e-05	3.124721e-05	-2.095356e-06	2.058346e-07	
14.501261	-8.917081e-05	4.330241e-05	-3.999087e-06	1.247302e-06	
14.502262	-8.199253e-05	1.150062e-05	-2.554218e-06	-6.777645e-08	
14.503263	-8.934469e-05	-6.932877e-06	8.755908e-07	1.240704e-06	
14.504264	-6.457277e-05	-4.944494e-07	3.609323e-06	-3.455712e-07	
14.505264	-1.395159e-05	-3.181856e-06	2.463820e-06	-3.945357e-06	
14.506265	-1.635731e-05	-6.792018e-07	-1.778998e-07	-5.308067e-06	
14.507266	2.495903e-06	2.870126e-06	1.466609e-06	-3.529631e-06	
14.508267	7.644222e-05	-1.970852e-08	3.280394e-06	-1.114528e-06	
14.509268	7.693337e-05	3.238123e-07	-4.939922e-07	-2.856387e-06	
14.510269	3.158855e-05	-3.563806e-07	-9.763146e-07	-2.260322e-06	
14.511269	6.740608e-05	-4.648035e-06	2.687024e-06	2.299161e-06	
14.512270	1.132923e-04	-9.346180e-06	-8.482174e-09	2.876802e-06	
14.513271	8.599931e-05	-1.068195e-05	-9.888151e-07	3.459962e-06	
14.514272	5.400417e-05	-6.954728e-06	2.595062e-06	3.918626e-06	
14.515273	4.044247e-05	-5.601567e-06	9.049344e-07	1.930922e-06	
14.516273	1.363612e-05	-7.554020e-06	-4.250142e-07	4.683593e-06	
14.517274	-1.615324e-05	-6.452610e-06	2.360005e-07	6.347446e-06	
14.518275	-3.308168e-05	-4.157639e-06	-9.237037e-07	2.729273e-06	
14.519276	-3.374428e-05	-1.381598e-06	4.246104e-07	2.092942e-06	
14.520277	-3.302591e-05	2.396272e-06	5.261852e-07	2.346967e-06	
14.521277	-3.750740e-05	4.649342e-06	-2.308291e-06	9.250465e-07	
14.522278	-1.695988e-05	7.896935e-06	-9.727504e-07	5.124062e-07	
14.523279	2.451257e-05	1.219339e-05	3.688229e-07	-5.307153e-07	
14.524280	3.637824e-05	1.090398e-05	8.710379e-08	-1.674767e-06	
14.525281	1.445882e-05	4.269317e-06	3.399050e-06	-1.860646e-06	
14.526282	-3.423804e-05	-5.150099e-07	2.377206e-06	-3.915209e-06	
14.527282	-8.432002e-05	-8.438939e-07	-1.766665e-06	-4.792604e-06	
14.528283	-5.359369e-05	-3.000970e-07	1.670101e-07	-2.394439e-06	
14.529284	-9.727476e-06	-3.420597e-06	1.396337e-06	-2.785308e-06	
14.530285	-2.986140e-05	-5.767908e-06	-6.297834e-07	-1.696364e-06	
14.531286	-2.329754e-05	-4.353200e-06	-9.025168e-07	3.764622e-06	
14.532286	-2.150797e-05	-5.262965e-06	-1.049025e-06	4.224213e-06	
14.533287	-5.509196e-05	-5.051710e-06	-3.450356e-06	8.327479e-07	
14.534288	-7.698687e-05	-2.821807e-06	-4.511968e-06	1.047734e-06	
14.535289	-5.253819e-05	-3.142550e-06	-2.831565e-06	3.044507e-06	
14.536290	1.065929e-04	-9.676084e-07	-3.268375e-06	-6.488668e-07	
14.537290	2.048013e-04	1.554401e-06	-3.600990e-06	-4.279720e-06	
14.538291	8.901430e-05	4.713404e-07	-1.116872e-06	9.263386e-07	
14.539292	-2.292813e-06	-1.410154e-06	-1.043329e-07	2.176478e-06	
14.540293	-3.670192e-05	-3.155735e-06	-1.157851e-07	-1.053171e-06	
14.541294	-1.005785e-04	-5.121005e-07	7.901592e-07	1.131294e-06	
14.542295	-1.357791e-04	3.521059e-06	1.179148e-06	-2.219153e-07	
14.543295	-1.531135e-04	5.624986e-06	7.691940e-07	-2.572012e-06	
14.544296	-1.078915e-04	1.248842e-05	1.653855e-06	-1.631330e-06	
14.545297	3.577783e-05	1.719633e-05	5.532363e-06	-2.124515e-06	
14.546298	1.165942e-04	1.152407e-05	7.871951e-06	3.956936e-07	
14.547299	1.370693e-04	2.540016e-06	4.139647e-06	6.499408e-07	
14.548299	2.141805e-04	-4.247453e-06	-7.330934e-07	-1.419265e-06	
14.549300	1.913535e-04	-8.099285e-06	-1.517446e-06	1.791250e-06	
14.550301	4.147313e-05	-7.763169e-06	-1.171647e-07	8.967607e-07	
14.551302	-6.877040e-06	-4.950386e-06	-5.595333e-07	-3.017363e-06	
14.552303	7.108267e-05	-2.634122e-07	-5.500403e-07	-4.420404e-07	
14.553303	1.005313e-04	8.323323e-06	2.022655e-06	1.497675e-06	
14.554304	9.658507e-06	1.158044e-05	-1.234401e-06	-9.183701e-07	
14.555305	-7.963836e-05	4.978538e-06	-5.561163e-06	-3.029221e-06	
14.556306	-9.686301e-05	-5.005077e-06	-1.224101e-06	-3.272355e-06	
14.557307	-1.117117e-04	-1.174191e-05	-2.164435e-07	-6.611173e-07	
14.558308	-1.681985e-04	-6.228769e-06	-1.816357e-06	9.124598e-07	
14.559308	-1.595590e-04	4.892447e-06	1.533133e-06	-5.721562e-07	
14.560309	-4.079962e-06	1.443249e-05	2.646939e-07	-6.164026e-07	
14.561310	8.341271e-05	1.167729e-05	-1.480980e-06	6.720849e-07	
14.562311	1.413000e-05	-1.074137e-05	1.710850e-06	7.627979e-07	
14.563312	7.114927e-06	-1.856154e-05	2.632112e-06	-1.059634e-06	
14.564312	6.578496e-05	-1.025467e-05	2.103265e-06	-6.121355e-07	
14.565313	1.035767e-05	-1.566966e-05	1.096122e-06	4.657625e-06	
14.566314	-9.787629e-05	-1.964403e-05	-3.194500e-07	6.897401e-06	
14.567315	-7.748297e-05	-1.035565e-05	-5.089356e-07	2.633633e-06	
14.568316	-1.338496e-05	-7.085668e-07	-1.579592e-06	-1.248345e-06	
14.569317	-3.267021e-05	2.249851e-06	-1.834911e-06	-1.033973e-07	
14.570317	-6.349052e-05	1.315267e-06	1.909089e-07	9.225483e-07	
14.571318	-1.962795e-05	2.293413e-06	1.976676e-06	-2.536714e-06	
14.572319	9.794419e-05	6.032627e-06	7.771934e-07	-3.087022e-06	
14.573320	1.054252e-04	8.095928e-06	-1.772401e-06	-2.576090e-07	
14.574321	-1.045926e-05	4.930676e-06	2.929874e-07	-2.874453e-06	
14.575321	-6.615182e-06	4.401488e-06	2.258571e-06	-4.366583e-06	
14.576322	4.956397e-05	7.916901e-06	-3.992067e-07	2.273580e-07	
14.577323	4.119274e-05	1.019238e-05	-2.012539e-06	1.418356e-06	
14.578324	6.947165e-05	1.135287e-05	-2.978609e-06	1.452599e-06	
14.579325	8.290160e-05	6.186581e-06	-2.977062e-06	1.884969e-06	
14.580325	3.500132e-05	1.752973e-06	-7.098034e-07	-8.077341e-07	
14.581326	3.858267e-05	2.592052e-06	-5.378524e-08	1.982485e-06	
14.582327	5.022571e-05	-1.549843e-06	1.155330e-06	5.260292e-06	
14.583328	-1.323058e-05	-4.079690e-06	2.610207e-06	2.136524e-06	
14.584329	-4.983526e-05	-1.352057e-06	3.606666e-07	1.559195e-06	
14.585330	-4.657800e-05	-4.363283e-07	3.204478e-07	1.097764e-06	
14.586330	-7.466654e-05	-1.624892e-06	4.250161e-06	1.623535e-06	
14.587331	-5.328996e-05	-4.340246e-06	4.118853e-06	7.357222e-06	
14.588332	1.639008e-05	-4.229390e-06	-6.255369e-07	8.718208e-06	
14.589333	-7.017608e-06	-5.198734e-06	-3.505027e-06	5.428245e-06	
14.590334	-5.703448e-05	-9.248189e-06	-2.370444e-06	8.224349e-07	
14.591334	-2.668528e-05	-4.101262e-06	-8.238712e-07	-3.755899e-06	
14.592335	-2.557320e-05	2.869769e-06	-4.139691e-07	-5.645328e-06	
14.593336	-6.835687e-05	2.173330e-06	-3.764299e-07	-1.226788e-05	
14.594337	-3.813662e-05	1.784251e-06	-2.062667e-06	-1.677784e-05	
14.595338	4.369529e-05	1.917784e-06	-4.278811e-06	-9.389639e-06	
14.596338	4.767767e-05	3.823090e-06	-5.450101e-06	-4.323787e-06	
14.597339	-2.529145e-05	7.791219e-06	-1.961855e-06	-3.272912e-06	
14.598340	-4.600309e-05	7.883899e-06	5.802261e-06	1.990801e-06	
14.599341	-6.972229e-05	7.781884e-06	5.241055e-06	4.304516e-06	
14.600342	-1.293456e-04	7.277793e-06	-2.230530e-06	3.349714e-06	
14.601343	-8.927384e-05	1.386810e-06	-3.293069e-06	5.719687e-06	
14.602343	-2.736321e-05	-2.506901e-06	1.183818e-06	6.772904e-06	
14.603344	4.826189e-05	-2.952745e-06	2.022793e-06	3.467533e-06	
14.604345	2.008539e-04	-9.205534e-06	-6.093833e-07	1.368883e-06	
14.605346	1.840260e-04	-1.249236e-05	2.366682e-06	2.918902e-06	
14.606347	1.704268e-05	-5.798399e-06	5.419295e-06	3.874245e-06	
14.607347	-1.792896e-06	-6.473181e-06	2.485868e-06	7.281878e-07	
14.608348	6.106603e-05	-1.466156e-05	1.619295e-06	-9.399645e-07	
14.609349	4.139286e-05	-1.166218e-05	1.207855e-06	-7.649718e-07	
14.610350	4.318154e-05	1.543254e-06	-4.588776e-07	-4.744024e-06	
14.611351	1.180744e-04	1.047382e-05	1.131534e-06	-7.221533e-06	
14.612352	1.165180e-04	6.095073e-06	3.493824e-06	-5.866575e-06	
14.613352	4.047601e-05	-4.235411e-07	3.193870e-06	-4.636432e-06	
14.614353	3.844905e-06	5.814145e-06	-8.375742e-08	-2.177794e-06	
14.615354	-9.332998e-06	6.821413e-06	-3.956847e-06	-3.452528e-08	
14.616355	-2.169378e-05	-9.006042e-06	-5.823660e-06	5.351491e-07	
14.617356	-2.824309e-05	-1.598929e-05	-4.974682e-06	1.082147e-06	
14.618356	-3.062371e-05	-6.781577e-06	-1.707019e-06	6.966711e-07	
14.619357	-3.035169e-05	3.017842e-06	-7.491338e-08	8.689779e-07	
14.620358	-4.041237e-05	9.025651e-06	-1.084086e-06	2.247821e-06	
14.621359	-6.596508e-05	8.027855e-06	-6.672969e-08	2.773729e-06	
14.622360	-9.542746e-05	9.250210e-06	3.432356e-06	3.465865e-06	
14.623360	-1.094182e-04	1.534427e-05	4.570754e-06	3.427381e-06	
14.624361	-1.367828e-04	8.009770e-06	1.188209e-06	3.380665e-06	
14.625362	-1.522819e-04	2.015687e-06	-1.855542e-07	2.617511e-06	
14.626363	-8.266028e-05	6.608963e-06	6.547682e-07	-1.208711e-06	
14.627364	2.223891e-06	4.076503e-06	-7.316657e-07	-1.138758e-06	
14.628365	5.225699e-05	2.908019e-06	-8.819284e-07	4.299194e-07	
14.629365	9.557557e-05	5.564789e-06	-2.573829e-06	-1.101804e-06	
14.630366	1.009476e-04	4.568889e-06	-3.925024e-06	2.023346e-07	
14.631367	7.978882e-05	2.514063e-06	-1.824867e-06	9.781451e-07	
14.632368	5.250643e-05	-3.900757e-06	-3.095820e-06	4.150331e-07	
14.633369	6.489591e-06	-1.008409e-05	-4.056839e-06	1.668609e-06	
14.634369	-3.446125e-05	-9.408410e-06	-5.705112e-07	7.748311e-07	
14.635370	-6.298326e-05	-5.542983e-06	2.669464e-06	1.243384e-07	
14.636371	-5.753250e-05	-3.702207e-06	1.781525e-06	9.488341e-07	
14.637372	-3.948790e-05	-4.226822e-06	3.867140e-07	9.368634e-07	
14.638373	-5.491357e-05	-4.746658e-06	3.564890e-07	2.471005e-06	
14.639373	2.483707e-05	-4.805318e-06	-1.454065e-06	2.858583e-06	
14.640374	1.863714e-04	-2.247686e-06	-2.458883e-07	1.528305e-06	
14.641375	1.766302e-04	-9.418172e-08	6.968449e-07	2.172629e-06	
14.642376	4.690721e-05	-1.201087e-06	-1.094277e-06	1.256814e-06	
14.643377	5.947126e-06	-2.050054e-06	-3.253621e-07	-1.027790e-06	
14.644378	-1.291245e-05	-3.249971e-06	8.272957e-07	-2.975446e-07	
14.645378	-5.293320e-05	-4.720652e-06	3.320994e-06	-1.048536e-06	
14.646379	-4.942473e-05	-4.405926e-06	3.606353e-06	-4.279540e-06	
14.647380	-7.395854e-05	-4.488183e-06	5.682822e-07	-3.064369e-06	
14.648381	-1.278942e-04	-7.194110e-06	4.071712e-07	-2.718911e-06	
14.649382	-1.657310e-04	-7.644397e-06	-4.822559e-07	-5.276654e-06	
14.650382	-1.266152e-04	-5.864704e-06	-1.615442e-06	-2.481245e-06	
14.651383	7.120698e-05	-8.971209e-06	1.389470e-06	-1.596270e-06	
14.652384	1.641179e-04	-9.160098e-06	4.695958e-06	-3.749570e-06	
14.653385	1.060741e-04	-1.193425e-06	3.969284e-06	-2.489960e-06	
14.654386	1.243671e-04	4.089270e-06	1.833447e-06	-3.150741e-06	
14.655386	7.610285e-05	7.137220e-06	2.986835e-06	-3.978113e-06	
14.656387	4.216641e-05	1.406013e-05	1.976643e-06	-3.065769e-06	
14.657388	1.178152e-04	2.069445e-05	-3.194934e-06	-1.408544e-06	
14.658389	7.530037e-05	2.578216e-05	-4.222316e-06	-2.009424e-07	
14.659390	5.872393e-06	2.643210e-05	-1.987300e-06	-1.915068e-06	
14.660391	-1.625746e-06	1.650062e-05	7.397627e-07	4.026112e-08	
14.661391	-9.029100e-06	5.031010e-06	2.403147e-06	8.873752e-07	
14.662392	1.173355e-05	8.465304e-07	1.073563e-06	-2.411569e-06	
14.663393	-3.541418e-06	-3.974488e-07	1.982963e-07	3.447261e-06	
14.664394	-5.832908e-05	-9.721271e-07	-1.829378e-06	9.780756e-06	
14.665395	-1.015136e-04	-2.371507e-06	-3.356145e-06	6.204590e-06	
14.666395	-1.443914e-04	-7.826081e-06	-2.174562e-06	6.565893e-06	
14.667396	-1.377349e-04	-1.097639e-05	-1.267525e-06	8.967052e-06	
14.668397	-1.205672e-04	-5.709089e-06	-1.824053e-08	3.745840e-06	
14.669398	-1.268644e-04	-1.717851e-06	-1.415067e-06	1.717999e-06	
14.670399	-1.787826e-05	-7.602197e-07	-3.247385e-06	3.950773e-06	
14.671400	1.410498e-04	1.211909e-06	-1.932898e-06	2.575718e-06	
14.672400	1.598658e-04	-3.284582e-06	-7.911591e-07	1.208783e-06	
14.673401	7.578860e-05	-7.252946e-06	-2.810437e-07	-6.526053e-07	
14.674402	-1.151878e-05	-9.018397e-06	-2.407228e-06	-3.727796e-06	
14.675403	-5.954070e-05	-1.801012e-05	-4.141553e-06	-5.129308e-06	
14.676404	-6.456661e-05	-1.759675e-05	-2.509274e-06	-6.843560e-06	
14.677404	-6.090984e-05	-5.654779e-06	-1.273313e-06	-7.078562e-06	
14.678405	-8.263335e-05	-4.623930e-06	8.578895e-07	-3.694752e-06	
14.679406	-9.501871e-05	-4.091887e-06	1.512972e-06	-7.934370e-07	
14.680407	-3.255976e-05	8.487314e-06	1.660966e-06	-1.138934e-06	
14.681408	6.623976e-05	1.016526e-05	4.422458e-06	-3.640706e-06	
14.682408	9.290499e-05	2.663923e-06	3.479261e-06	-3.964218e-06	
14.683409	3.300209e-05	3.214958e-06	2.471311e-06	-2.757581e-07	
14.684410	2.271871e-05	1.259416e-06	4.602688e-06	1.431075e-06	
14.685411	8.579934e-05	5.799658e-06	4.620545e-06	7.660199e-07	
14.686412	1.111130e-04	1.740126e-05	1.993894e-06	2.282476e-06	
14.687413	1.074487e-04	8.273718e-06	-8.050877e-07	1.126843e-06	
14.688413	7.840841e-05	-4.472614e-06	8.806735e-07	-7.710355e-07	
14.689414	1.955835e-05	-6.420503e-07	2.952185e-06	1.097797e-06	
14.690415	-9.999695e-06	3.050829e-06	8.789588e-07	6.640714e-07	
14.691416	-1.147910e-05	2.938575e-06	-3.076126e-07	2.775421e-06	
14.692417	-5.615402e-07	1.455224e-06	-2.442600e-07	5.071559e-06	
14.693417	-4.457432e-07	-2.058208e-06	-1.296849e-06	2.907348e-07	
14.694418	-2.232052e-05	-4.017486e-06	-3.070973e-06	1.010256e-06	
14.695419	-2.892353e-05	-5.099736e-06	-2.987492e-06	4.129550e-06	
14.696420	-1.790369e-05	-6.915417e-06	-9.215548e-07	3.420673e-06	
14.697421	-2.472216e-05	-1.438847e-05	-9.524665e-07	5.474327e-06	
14.698421	-5.952592e-05	-1.924297e-05	-2.799586e-06	4.258631e-06	
14.699422	-7.026941e-05	-1.003279e-05	-2.896504e-06	-1.037788e-06	
14.700423	-3.987522e-05	-2.877661e-06	-1.370879e-06	-6.476735e-06	
14.701424	-1.996834e-05	-4.150616e-06	-1.869141e-07	-1.091823e-05	
14.702425	-1.774009e-05	-5.485657e-06	-5.469185e-07	-8.628537e-06	
14.703426	7.182089e-06	-2.815153e-07	-3.161400e-07	-2.940059e-06	
14.704426	6.519352e-05	1.578030e-05	2.064022e-06	-5.126143e-07	
14.705427	9.108863e-05	1.742992e-05	1.278533e-06	1.902508e-06	
14.706428	5.126260e-05	1.013396e-05	-8.906749e-07	5.099565e-06	
14.707429	4.842227e-06	2.461919e-05	-2.048696e-07	6.189004e-06	
14.708430	-7.046654e-06	2.815765e-05	-4.754575e-08	8.142393e-06	
14.709430	2.008780e-06	9.238672e-06	-1.210265e-06	8.210032e-06	
14.710431	-2.719543e-05	-2.028242e-06	-3.879576e-06	3.891538e-06	
14.711432	-9.363765e-05	-5.272615e-06	-4.192438e-06	2.208248e-06	
14.712433	-1.104145e-04	2.485083e-06	-1.195241e-06	2.479751e-06	
14.713434	-1.135942e-04	8.599837e-06	-1.675434e-07	5.293437e-07	
14.714434	-1.489177e-04	-1.893291e-06	-2.351018e-07	-3.718268e-07	
14.715435	-1.021507e-04	-8.961963e-06	6.124666e-07	1.373194e-06	
14.716436	1.676406e-05	-8.095717e-06	3.553511e-06	8.112509e-07	
14.717437	8.870561e-05	-3.698459e-07	5.603342e-06	-4.702059e-06	
14.718438	1.350374e-04	7.744839e-06	4.042168e-06	-1.311529e-05	
14.719439	1.361015e-04	1.519418e-06	1.856240e-06	-2.348198e-05	
14.720439	5.059270e-05	-3.237812e-06	8.983855e-07	-2.652593e-05	
14.721440	-9.315845e-07	-6.391372e-06	1.419672e-06	-1.347533e-05	
14.722441	5.841268e-07	-1.732740e-05	1.062625e-06	2.325444e-06	
14.723442	-1.907031e-05	-1.729312e-05	1.904659e-06	8.665330e-06	
14.724443	-4.989547e-05	-1.130986e-05	3.242338e-06	8.403378e-06	
14.725443	-1.255204e-04	-1.074616e-05	1.347317e-06	6.000502e-06	
14.726444	-6.666187e-05	-7.518650e-06	1.861446e-06	6.034872e-06	
14.727445	2.335166e-04	-6.198285e-06	7.076132e-07	6.622405e-06	
14.728446	3.174638e-04	-7.704412e-06	-3.107650e-06	5.696148e-06	
14.729447	1.150452e-04	-2.088278e-06	-1.137837e-06	4.224688e-06	
14.730448	3.251079e-05	9.119144e-06	9.542267e-08	1.726061e-06	
14.731448	2.359412e-05	7.114803e-06	-5.586013e-07	1.494725e-06	
14.732449	-3.020582e-05	-4.093050e-06	-4.924301e-07	1.938270e-06	
14.733450	-5.185256e-05	5.840174e-06	-3.266587e-06	1.714216e-06	
14.734451	-5.465081e-05	2.334001e-05	-3.618625e-06	5.766072e-07	
14.735452	-4.682921e-05	2.117539e-05	-1.818718e-06	-2.779602e-06	
14.736452	-3.651710e-05	6.670141e-06	-1.840974e-06	-2.579107e-07	
14.737453	-3.584937e-05	-4.405878e-06	-1.153211e-06	3.330020e-06	
14.738454	-3.010531e-05	-7.018880e-06	-1.223028e-06	-4.165620e-07	
14.739455	-3.532102e-05	-1.241233e-05	-1.981236e-06	-1.048824e-07	
14.740456	-4.640744e-05	-1.697901e-05	-6.138260e-07	2.091591e-06	
14.741456	-4.622817e-05	-1.405876e-05	2.031318e-07	-1.469795e-06	
14.742457	-3.343621e-05	-9.856766e-06	-3.613573e-07	-8.286892e-07	
14.743458	-1.468579e-05	-6.763643e-06	1.843735e-06	2.614327e-06	
14.744459	-2.889944e-05	-8.792038e-06	3.589541e-06	1.513981e-06	
14.745460	-6.478739e-05	3.168213e-06	1.619489e-06	-1.523993e-08	
14.746461	-6.382599e-05	2.840222e-05	1.099672e-06	3.841358e-09	
14.747461	-2.928405e-05	3.165043e-05	5.274992e-07	-1.790481e-07	
14.748462	1.789239e-06	2.125343e-05	-4.577834e-07	-6.816654e-07	
14.749463	1.204974e-05	1.787592e-05	3.244287e-07	4.398967e-07	
14.750464	1.443314e-05	2.007832e-05	-1.061605e-06	1.829334e-06	
14.751465	2.081194e-05	1.658450e-05	-2.195141e-06	1.511961e-06	
14.752465	2.630486e-05	-2.828879e-06	-2.092315e-06	1.277790e-06	
14.753466	3.056425e-05	-1.591379e-05	-2.304304e-06	-7.766050e-07	
14.754467	2.950202e-05	-1.267957e-05	-8.357165e-07	-3.144671e-06	
14.755468	3.468232e-05	-1.216056e-05	-8.627065e-07	-1.048752e-06	
14.756469	3.841428e-05	-1.176166e-05	-2.261700e-06	5.401036e-07	
14.757469	2.051734e-05	-5.933216e-06	-4.044426e-07	-1.823165e-06	
14.758470	1.448139e-05	-2.161974e-06	2.729022e-06	-2.960386e-06	
14.759471	1.911150e-05	-5.194183e-07	2.458232e-06	-2.586994e-06	
14.760472	3.148198e-06	4.920162e-07	3.338437e-07	-2.192989e-06	
14.761473	-9.588210e-06	-3.556568e-06	2.601029e-07	-1.098628e-06	
14.762474	-3.241640e-06	-1.223181e-05	6.371036e-07	-5.888114e-07	
14.763474	1.309332e-06	-1.715509e-05	4.857274e-07	-8.013660e-08	
14.764475	-6.528466e-06	-1.345166e-05	1.403122e-06	-1.688094e-06	
14.765476	-7.166692e-06	-5.418760e-06	2.293969e-06	-3.200357e-06	
14.766477	8.546214e-07	-7.422594e-07	1.128918e-06	-2.218630e-07	
14.767478	-1.550130e-06	-1.270748e-06	-9.098551e-07	1.523875e-06	
14.768478	7.605476e-07	-4.786616e-06	1.067494e-07	2.311836e-06	
14.769479	9.718196e-06	-8.096811e-06	2.727234e-07	3.652111e-06	
14.770480	6.549990e-06	-6.387928e-06	-1.719232e-06	2.958093e-06	
14.771481	-6.623841e-07	-2.283472e-06	9.952317e-07	2.567506e-06	
14.772482	-9.989351e-06	4.238662e-06	2.355992e-06	2.255564e-06	
14.773483	-2.292181e-05	1.520266e-05	1.592066e-07	1.461164e-06	
14.774483	-1.917080e-05	1.786783e-05	7.358295e-07	-1.974771e-07	
14.775484	-1.127791e-07	1.537200e-05	8.653972e-07	-1.157290e-06	
14.776485	1.034318e-05	1.912032e-05	8.218982e-07	-1.215453e-06	
14.777486	1.133648e-05	1.700141e-05	1.884821e-06	-3.080182e-06	
14.778487	1.081383e-05	8.526514e-06	5.977567e-07	-1.565702e-06	
14.779487	8.173177e-06	4.229939e-06	-2.509258e-06	-7.630632e-07	
14.780488	4.751791e-06	1.207054e-06	-3.047058e-06	-3.811479e-06	
14.781489	7.286064e-07	-2.357450e-06	-1.602774e-06	-3.637659e-07	
14.782490	-3.967927e-06	-2.803690e-06	-2.282968e-06	2.116328e-06	
14.783491	-3.335552e-06	-7.395088e-08	-6.580194e-07	-6.950136e-07	
14.784491	2.142910e-06	-1.218562e-06	2.427181e-06	2.067088e-07	
14.785492	7.546004e-07	-5.248304e-06	1.117784e-06	-6.458992e-07	
14.786493	-4.204535e-06	-5.402737e-06	8.235628e-07	-1.551735e-06	
14.787494	-2.580866e-06	-4.808840e-06	2.024010e-06	1.162775e-06	
14.788495	1.536439e-07	-4.686995e-06	3.283694e-07	2.071497e-07	
14.789496	-9.031347e-07	-4.440907e-06	4.485818e-08	8.718074e-07	
14.790496	-3.428570e-06	-6.360171e-06	1.213034e-06	3.450480e-06	
14.791497	-1.483094e-06	-8.198346e-06	8.335539e-08	1.134175e-06	
14.792498	1.698031e-06	-6.238649e-06	4.016402e-07	1.211181e-06	
14.793499	-1.726819e-06	-3.723442e-06	1.696122e-06	3.909396e-06	
14.794500	-1.658276e-06	-6.305300e-06	5.532461e-07	2.278550e-06	
14.795500	1.058409e-06	-8.941404e-06	-2.241210e-07	4.453009e-07	
14.796501	-3.868742e-06	-6.994024e-06	-1.292047e-06	-3.265704e-07	
14.797502	-5.362891e-06	-3.953911e-06	-2.853182e-06	-2.056808e-06	
14.798503	-1.770788e-06	-2.901324e-06	-3.699855e-06	-1.071985e-06	
14.799504	-2.267506e-06	-3.943424e-06	-5.156096e-06	-2.276534e-07	
14.800504	-2.707938e-06	-1.441577e-06	-3.882613e-06	-2.906048e-06	
14.801505	-2.367001e-06	3.817923e-06	-8.569944e-07	-3.535546e-06	
14.802506	-3.057889e-06	5.672532e-06	-5.587952e-07	-1.593772e-06	
14.803507	2.687402e-07	6.098831e-06	-1.707196e-06	-5.847445e-07	
14.804508	4.018147e-06	6.764908e-06	-2.347723e-06	-3.724836e-07	
14.805509	-8.141189e-07	6.450938e-06	-9.411645e-07	-2.107031e-06	
14.806509	-5.248312e-06	4.281834e-06	7.928042e-07	-3.995419e-06	
14.807510	-1.838124e-07	2.683410e-06	1.578407e-06	-2.054250e-06	
14.808511	2.471016e-06	5.040371e-06	3.537459e-06	7.398582e-07	
14.809512	1.619553e-06	6.470621e-06	4.767516e-06	2.732858e-06	
14.810513	4.014573e-06	4.181618e-06	2.899144e-06	4.244963e-06	
14.811513	3.974141e-06	2.297790e-06	-8.749024e-09	1.711428e-06	
14.812514	3.227350e-06	1.702562e-06	4.092360e-07	1.154380e-07	
14.813515	2.738478e-06	2.316354e-06	2.028087e-06	3.143810e-06	
14.814516	1.186071e-07	3.691832e-06	9.646850e-08	1.677996e-06	
14.815517	-1.051174e-06	5.017434e-06	-6.947279e-07	-1.140425e-06	
14.816517	-2.866951e-06	6.922003e-06	2.995446e-07	2.856612e-06	
14.817518	-3.483954e-06	7.385781e-06	-8.405826e-07	3.244363e-06	
14.818519	-3.254836e-06	6.898630e-06	-7.532701e-07	-2.221990e-06	
14.819520	-6.199232e-06	8.798656e-06	6.441187e-07	-1.308852e-06	
14.820521	-5.027032e-06	1.151650e-05	1.258261e-06	2.135713e-06	
14.821522	-1.407647e-06	1.033117e-05	1.646529e-06	2.044736e-07	
14.822522	1.124201e-06	9.139031e-06	5.574598e-07	2.042522e-07	
14.823523	4.340386e-06	1.277433e-05	2.792504e-07	2.644792e-06	
14.824524	2.396076e-06	1.159141e-05	1.359616e-06	-5.682600e-07	
14.825525	1.254395e-06	1.163758e-05	3.757236e-07	-2.258579e-06	
14.826526	4.952947e-06	1.285164e-05	-5.906831e-07	2.232914e-06	
14.827526	5.081450e-06	-1.334362e-05	-2.475012e-07	9.412252e-07	
14.828527	4.287490e-06	-4.655593e-05	-1.085588e-08	-2.667214e-06	
14.829528	3.617391e-06	-5.278996e-05	-3.149521e-07	-4.385773e-07	
14.830529	5.193454e-07	-4.822272e-05	-1.063790e-06	-7.293446e-07	
14.831530	3.357878e-07	-4.222184e-05	-4.535642e-07	-1.098054e-06	
14.832531	3.198897e-06	-3.289217e-05	-1.732753e-07	4.348381e-07	
14.833531	2.907581e-06	-2.326679e-05	-1.576019e-06	-1.750246e-06	
14.834532	-1.731194e-07	-1.181132e-05	-2.177709e-06	-2.537300e-06	
14.835533	7.474851e-09	-1.854098e-06	-1.829555e-06	-2.306253e-06	
14.836534	1.721978e-06	5.183056e-06	3.405531e-07	-2.779361e-06	
14.837535	7.019917e-07	1.228911e-05	3.034291e-06	-2.602995e-06	
14.838535	1.875932e-07	1.780314e-05	1.651029e-06	-8.984955e-07	
14.839536	4.648847e-08	1.900539e-05	-1.259773e-06	1.766231e-06	
14.840537	-1.008130e-06	1.996024e-05	-7.652521e-07	-1.851173e-06	
14.841538	-1.297162e-06	2.136505e-05	2.205769e-06	-4.204909e-06	
14.842539	-1.884623e-06	1.843681e-05	4.166947e-06	-1.825051e-06	
14.843539	-5.676197e-07	1.451149e-05	2.595952e-06	-3.849757e-06	
14.844540	3.917851e-07	1.164814e-05	5.423991e-07	-1.777853e-06	
14.845541	-2.783813e-06	9.195267e-06	1.974697e-06	4.240276e-06	
14.846542	-2.981258e-06	8.440896e-06	1.829324e-06	4.115451e-06	
14.847543	-4.011095e-07	5.240967e-06	-1.893611e-06	3.681445e-06	
14.848544	-3.590099e-07	3.683889e-07	-2.991566e-06	5.263327e-06	
14.849544	-8.633017e-07	4.495303e-07	-2.096288e-06	4.374535e-06	
14.850545	-1.384751e-06	3.355971e-06	-3.086307e-06	3.710506e-06	
14.851546	-2.226546e-06	2.254577e-06	-5.199566e-06	4.081585e-06	
14.852547	-1.519460e-06	-3.230478e-07	-5.917879e-06	2.664783e-06	
14.853548	-9.678085e-07	1.747853e-06	-4.678830e-06	1.363853e-06	
14.854548	-4.214336e-06	4.907266e-06	-4.708393e-06	-1.389931e-09	
14.855549	-6.149551e-06	4.424177e-06	-4.481154e-06	-1.261664e-06	
14.856550	-3.668578e-06	7.844425e-07	-2.094929e-07	-1.670775e-06	
14.857551	-6.912297e-07	-5.687002e-07	2.862828e-06	-3.556171e-06	
14.858552	2.068274e-06	2.397738e-06	2.328600e-06	-2.226514e-06	
14.859552	8.400527e-07	2.878495e-07	2.575207e-06	6.108820e-07	
14.860553	-1.245581e-07	-4.089194e-06	1.332625e-06	-5.283106e-07	
14.861554	3.640280e-06	-4.794415e-06	-4.595920e-07	6.310090e-07	
14.862555	3.713349e-06	-8.468998e-06	4.173777e-06	4.218888e-06	
14.863556	2.641546e-06	-7.579651e-06	8.401442e-06	5.271888e-06	
14.864557	2.434619e-06	-1.914678e-06	3.698552e-06	3.053764e-06	
14.865557	-4.024736e-07	-3.234076e-06	6.372542e-07	5.233462e-07	
14.866558	-2.330765e-06	-3.973793e-06	4.547531e-06	-7.591321e-07	
14.867559	-4.308665e-06	-2.867720e-06	5.246317e-06	-4.579344e-06	
14.868560	-5.964606e-06	-2.122490e-06	2.626779e-06	-6.244910e-06	
14.869561	-5.207375e-06	1.804007e-06	1.076810e-07	-5.946479e-06	
14.870561	-2.727595e-06	-1.382463e-07	-1.146363e-06	-8.404980e-06	
14.871562	1.158992e-06	-3.728902e-06	5.832241e-07	-5.771745e-06	
14.872563	4.648021e-06	1.225349e-07	-2.179314e-06	-7.834236e-07	
14.873564	4.841414e-06	3.088754e-06	-5.539456e-06	5.870841e-07	
14.874565	1.306229e-06	3.432811e-06	-2.620874e-06	1.550529e-06	
14.875566	2.160983e-06	1.814559e-06	-2.291013e-06	-1.601042e-07	
14.876566	6.112003e-06	-3.591328e-06	-2.730741e-06	-3.968495e-06	
14.877567	4.531522e-06	-5.582631e-06	3.258977e-07	-6.093367e-06	
14.878568	2.071584e-06	-2.846440e-06	5.749821e-07	-4.300105e-06	
14.879569	1.447094e-06	-1.163958e-06	-1.816603e-06	5.969425e-07	
14.880570	3.055167e-06	-6.540075e-07	-2.589602e-06	3.206281e-06	
14.881570	4.568632e-06	-1.010101e-06	-1.230276e-06	3.005062e-06	
14.882571	2.280133e-06	-2.445979e-06	-1.907249e-07	3.717441e-06	
14.883572	2.593298e-06	-4.550366e-06	-9.962852e-08	5.757123e-06	
14.884573	3.851419e-06	-6.627579e-06	1.190828e-06	3.253682e-06	
14.885574	2.893197e-06	-4.036948e-06	1.489899e-06	5.434290e-07	
14.886574	3.193494e-06	1.454679e-06	-5.885780e-07	4.747764e-06	
14.887575	2.423086e-06	1.989951e-06	-8.835574e-07	5.491297e-06	
14.888576	-1.522031e-06	8.711898e-07	1.053348e-07	2.841978e-06	
14.889577	-7.883518e-06	3.499894e-06	2.025913e-07	9.927893e-07	
14.890578	-1.066929e-05	6.181090e-06	7.658715e-07	-8.555487e-07	
14.891579	-7.573301e-06	7.297387e-06	4.232908e-07	3.630236e-06	
14.892579	-5.688211e-06	7.882344e-06	-1.604762e-06	5.555634e-06	
14.893580	-4.272707e-06	7.028257e-06	-1.535005e-06	1.082232e-06	
14.894581	-6.984671e-07	5.273392e-06	2.299339e-06	-1.126187e-06	
14.895582	-1.002629e-07	2.443211e-06	3.723747e-06	-2.583726e-06	
14.896583	-1.577144e-06	-9.311543e-07	1.017653e-06	-7.785314e-07	
14.897583	-5.811050e-07	-1.301783e-06	-2.080384e-07	3.268811e-06	
14.898584	1.343840e-06	-1.866621e-06	-1.092270e-06	3.314247e-06	
14.899585	2.207027e-06	-5.081151e-06	-1.158567e-06	1.131479e-06	
14.900586	-8.277947e-07	-4.799539e-06	1.071208e-06	-5.692286e-07	
14.901587	-3.325997e-06	-2.510862e-06	2.465271e-06	-2.566292e-06	
14.902587	1.467124e-06	-2.111143e-06	3.491547e-06	-6.303632e-06	
14.903588	4.667245e-06	-1.945193e-06	2.136324e-06	-5.650160e-06	
14.904589	4.459766e-06	-1.707765e-06	-3.598265e-07	-1.439933e-07	
14.905590	4.687334e-06	4.479878e-07	1.881310e-07	-3.160613e-07	
14.906591	1.431330e-06	3.039711e-06	3.482512e-08	-4.331668e-06	
14.907592	-5.957827e-07	1.097561e-06	-8.044468e-07	-3.288038e-06	
14.908592	-1.155043e-06	-2.130492e-06	-1.117486e-06	7.048706e-07	
14.909593	-3.227683e-06	-2.173149e-06	-3.020610e-06	8.991341e-07	
14.910594	-3.274960e-06	-3.004757e-06	-2.429537e-06	-1.444779e-06	
14.911595	-4.074181e-06	-4.479168e-06	2.773066e-07	-1.409627e-06	
14.912596	-3.296065e-06	-2.249347e-06	-1.863154e-06	6.048072e-07	
14.913596	1.753945e-06	7.976928e-07	-4.330207e-06	1.209201e-06	
14.914597	2.268305e-06	6.784550e-07	-6.445250e-07	-5.535010e-07	
14.915598	2.726652e-07	-1.386324e-06	1.753453e-06	-1.990380e-06	
14.916599	3.214281e-06	-5.177302e-07	-1.305698e-08	-1.440551e-06	
14.917600	4.123941e-06	3.985515e-07	6.161713e-07	-3.353397e-07	
14.918600	4.378752e-08	-2.585625e-06	1.073894e-06	-2.797468e-08	
14.919601	-9.485357e-07	-3.945617e-06	-1.611907e-07	-1.541806e-07	
14.920602	-2.200507e-07	-5.144015e-06	-1.772230e-08	-9.938655e-07	
14.921603	-3.667442e-06	-4.962961e-06	-1.784551e-06	-2.250669e-06	
14.922604	-4.771623e-06	1.503873e-06	-2.024927e-06	-1.256455e-06	
14.923605	-2.156385e-06	4.129146e-06	9.837643e-07	1.005009e-06	
14.924605	-3.379404e-06	-4.545386e-07	9.551698e-07	1.344844e-06	
14.925606	-4.812686e-06	-2.024476e-06	-6.172390e-07	4.673937e-07	
14.926607	-4.387169e-06	1.608044e-07	-8.685777e-07	1.426289e-07	
14.927608	-2.435578e-06	2.172223e-06	1.326839e-06	1.068455e-06	
14.928609	1.853075e-06	7.282127e-06	3.169124e-06	1.504690e-06	
14.929609	2.533632e-06	1.461187e-05	2.282925e-06	3.924204e-07	
14.930610	2.063638e-06	1.945783e-05	7.408354e-07	1.330557e-06	
14.931611	3.877523e-06	2.041711e-05	-1.707898e-06	3.751784e-06	
14.932612	6.614360e-06	1.544382e-05	-1.569295e-06	4.425822e-06	
14.933613	8.795116e-06	1.007448e-05	-9.243864e-07	2.190418e-06	
14.934614	6.848595e-06	8.775654e-06	-9.010460e-07	-2.676982e-06	
14.935614	5.474537e-06	5.033380e-06	1.401913e-06	-2.913064e-06	
14.936615	7.173420e-06	-1.653115e-06	6.814126e-07	1.320079e-06	
14.937616	7.361454e-06	-8.692238e-06	2.265385e-06	1.149436e-06	
14.938617	3.019441e-06	-1.439292e-05	5.730397e-06	-6.335894e-07	
14.939618	-1.686815e-06	-1.362269e-05	1.744025e-06	-4.921033e-07	
14.940618	-2.560624e-07	-8.793059e-06	-1.349951e-06	-1.357256e-06	
14.941619	-2.007484e-07	-5.679587e-06	-4.323867e-07	-1.713670e-06	
14.942620	-3.458259e-06	-2.504773e-06	-2.271331e-06	-1.652646e-06	
14.943621	-4.436094e-06	-1.591183e-06	-4.287390e-06	-1.544022e-06	
14.944622	-6.538991e-06	-8.202659e-06	-2.290327e-06	1.466348e-06	
14.945622	-6.764858e-06	-9.616727e-06	7.699020e-08	1.929535e-06	
14.946623	-2.780879e-06	-2.614128e-06	1.460665e-06	8.296497e-07	
14.947624	1.589474e-07	-3.256216e-06	3.259522e-06	4.149364e-06	
14.948625	5.673611e-07	-6.679644e-06	1.856466e-06	3.050182e-06	
14.949626	-8.517453e-07	-1.369887e-05	-5.694257e-07	1.923380e-07	
14.950627	-2.187731e-06	-2.390019e-05	-9.896683e-07	1.825745e-06	
14.951627	-1.795136e-06	-1.546747e-05	-1.183301e-06	1.793575e-06	
14.952628	-2.144322e-06	-5.788131e-06	-1.507309e-06	1.782067e-06	
14.953629	-4.891014e-06	-1.018569e-05	-1.921027e-06	-5.651601e-07	
14.954630	-4.536218e-06	-4.096514e-06	-3.578999e-07	-3.132300e-06	
14.955631	-1.746039e-06	1.011635e-05	9.678060e-07	-2.238150e-07	
14.956631	-1.528049e-06	1.863084e-05	-2.537785e-07	1.553622e-06	
14.957632	7.227676e-09	3.348899e-05	-1.008885e-06	3.680657e-06	
14.958633	9.679411e-08	5.111136e-05	-1.258166e-06	3.291294e-06	
14.959634	-2.059419e-06	4.139339e-05	-1.285279e-06	-2.341325e-06	
14.960635	5.100032e-07	9.763833e-06	-5.715516e-07	-2.395664e-06	
14.961635	2.151903e-06	-1.533698e-05	1.200597e-06	-1.164788e-06	
14.962636	-3.731736e-07	-3.145130e-05	1.716224e-06	-3.437111e-06	
14.963637	-6.402891e-07	-2.805032e-05	-5.943451e-07	-2.895088e-06	
14.964638	1.127357e-06	-1.087156e-05	2.444283e-07	-3.001521e-06	
14.965639	2.177902e-06	-9.863919e-06	2.657816e-06	-4.308462e-06	
14.966640	3.797867e-06	-1.515683e-05	1.973516e-06	-3.296468e-06	
14.967640	3.036491e-06	-1.449581e-05	1.265139e-06	-3.569086e-06	
14.968641	-6.129768e-07	-1.315893e-05	1.109698e-07	-4.667970e-06	
14.969642	8.803889e-07	-9.265744e-06	8.555141e-07	-3.380019e-06	
14.970643	2.747974e-06	-8.568105e-06	2.571524e-06	-1.053532e-06	
14.971644	3.093402e-06	-7.002795e-06	-3.312879e-08	-1.515679e-06	
14.972644	7.326633e-06	4.406492e-06	-7.908012e-07	-1.133601e-06	
14.973645	2.754803e-06	2.114891e-05	4.488272e-07	3.662864e-06	
14.974646	-4.928625e-06	3.401411e-05	-6.902225e-07	3.187438e-06	
14.975647	-2.099625e-06	3.094658e-05	-8.672005e-07	1.163538e-07	
14.976648	-1.124640e-06	2.090301e-05	-7.295121e-07	3.518293e-06	
14.977648	-1.539892e-06	1.844071e-05	-4.255916e-07	5.600806e-06	
14.978649	5.297707e-07	1.103420e-05	-9.346752e-08	2.842365e-06	
14.979650	-9.152690e-07	-1.742291e-06	-1.196369e-06	1.113973e-06	
14.980651	-1.854919e-08	-4.691890e-06	-9.079279e-07	3.031947e-06	
14.981652	2.253203e-06	-2.760718e-06	-2.841398e-07	3.499870e-06	
14.982653	5.441943e-07	-3.017293e-06	-9.571884e-07	6.592726e-07	
14.983653	-1.885028e-07	2.261922e-06	-3.089483e-06	9.451743e-07	
14.984654	3.249566e-07	1.273805e-05	-4.526533e-06	1.228171e-06	
14.985655	-1.155265e-06	1.108095e-05	-1.238583e-06	-8.089096e-07	
14.986656	-2.911584e-06	-2.033813e-06	-6.850162e-07	-3.132107e-07	
14.987657	-2.608183e-06	-8.263733e-06	-3.001351e-06	-8.449586e-07	
14.988657	-1.828602e-06	-8.018754e-06	9.264556e-07	-3.968084e-06	
14.989658	-1.987997e-06	-6.973769e-06	3.775322e-06	-4.701790e-06	
14.990659	-3.265317e-07	-7.644439e-06	1.185193e-06	-2.312983e-06	
14.991660	1.550252e-06	-1.481126e-05	1.670635e-07	-1.018667e-06	
14.992661	2.921802e-08	-2.049379e-05	2.370018e-06	-1.091026e-06	
14.993662	-2.395260e-06	-1.820946e-05	3.993433e-06	5.044272e-07	
14.994662	-1.845863e-06	-1.577765e-05	2.606349e-06	1.280066e-06	
14.995663	1.809955e-06	-1.364828e-05	8.477661e-07	-5.682151e-08	
14.996664	2.379702e-06	-8.950554e-06	1.204168e-07	-1.659965e-06	
14.997665	1.514076e-07	-7.518150e-06	6.911094e-07	-3.741525e-07	
14.998666	1.339001e-06	-4.356984e-06	7.209648e-07	3.215213e-06	
14.999666	1.539544e-06	-6.827592e-07	-4.381760e-07	2.362323e-06	
15.000667	7.407544e-07	-7.328304e-06	4.819773e-07	9.655657e-07	
15.001668	2.269868e-06	-7.982202e-06	4.965975e-07	4.796264e-06	
15.002669	3.688457e-06	6.570007e-06	-4.033929e-07	6.122202e-06	
15.003670	5.840279e-06	1.270229e-05	-1.306805e-06	2.439982e-06	
15.004670	4.306059e-06	-2.171965e-06	-3.555864e-06	1.015342e-06	
15.005671	1.625988e-06	-8.814106e-06	-2.455277e-06	-6.221016e-07	
15.006672	1.669817e-06	1.457804e-05	5.589895e-07	-3.241314e-06	
15.007673	-3.090360e-06	2.046569e-05	1.639383e-06	-1.137766e-06	
15.008674	-4.379742e-06	-3.240651e-07	1.148351e-06	2.998260e-07	
15.009675	-6.674959e-07	2.198340e-05	-2.813124e-07	-3.837357e-08	
15.010675	-2.269739e-06	5.659975e-05	-7.857934e-07	-3.527823e-07	
15.011676	-2.612220e-06	3.292190e-05	-1.269509e-07	-1.372338e-06	
15.012677	-2.257920e-06	3.721124e-06	1.577581e-06	-4.744789e-07	
15.013678	-5.550188e-06	4.026870e-06	6.263102e-07	-2.916582e-08	
15.014679	-6.287119e-06	-3.623823e-07	-3.062192e-06	1.770022e-06	
15.015679	-3.973086e-06	-4.772254e-06	-6.926043e-07	2.803178e-06	
15.016680	-2.785886e-06	-3.658054e-06	2.193564e-06	-6.148713e-07	
15.017681	-3.586107e-06	-1.570297e-05	-9.516710e-07	-1.675632e-06	
15.018682	-1.707282e-06	-3.013088e-05	-7.085904e-08	-1.808286e-06	
15.019683	1.761934e-06	-2.255293e-05	1.706615e-06	-5.966268e-06	
15.020683	1.745984e-06	-8.794434e-06	-1.297354e-06	-8.157723e-06	
15.021684	2.150219e-06	-5.537070e-07	7.477673e-07	-3.101290e-06	
15.022685	3.617838e-06	9.230209e-06	5.173820e-06	7.168027e-07	
15.023686	4.162155e-06	-7.541476e-06	1.673365e-06	-2.602981e-07	
15.024687	2.922738e-06	-2.195127e-05	-2.739932e-06	1.891829e-07	
15.025688	-5.594666e-07	1.516894e-05	-1.586805e-06	8.772381e-07	
15.026688	-1.791515e-06	4.055418e-05	-1.364157e-06	1.347417e-06	
15.027689	-2.327860e-06	2.551637e-05	-6.393349e-07	1.734012e-06	
15.028690	-1.280657e-06	1.964793e-05	1.467606e-06	1.201914e-06	
15.029691	3.790753e-06	1.549527e-05	-1.645684e-06	1.189646e-06	
15.030692	5.491194e-06	-5.576118e-06	-4.285013e-06	1.228494e-06	
15.031692	3.417276e-06	-1.864598e-05	-1.263990e-06	2.498315e-07	
15.032693	1.612762e-06	-2.168091e-05	1.366859e-06	-1.042691e-06	
15.033694	7.903922e-07	-2.286230e-05	3.277103e-07	-1.492021e-06	
15.034695	1.928628e-06	-8.828056e-06	-2.130665e-06	-2.508073e-06	
15.035696	2.469804e-06	-2.704323e-06	-2.456048e-06	-2.318189e-06	
15.036697	-1.095817e-06	-1.372579e-05	2.196687e-07	-2.142971e-06	
15.037697	-4.224641e-06	-2.186465e-05	2.311707e-06	-3.632516e-06	
15.038698	-1.434808e-06	-3.842668e-05	1.045512e-06	-2.642369e-06	
15.039699	1.696098e-06	-2.818445e-05	-1.353089e-06	-1.294978e-06	
15.040700	3.739291e-06	1.300447e-05	-9.952828e-07	2.386453e-06	
15.041701	7.966525e-06	2.607039e-05	1.307859e-06	6.691863e-06	
15.042701	9.121575e-06	3.311104e-05	1.011783e-06	4.553518e-06	
15.043702	5.806347e-06	2.010711e-05	-5.458098e-07	3.220020e-06	
15.044703	1.857119e-06	-5.224110e-05	1.050233e-06	3.517107e-06	
15.045704	-2.701898e-06	-9.803957e-05	3.073649e-06	2.729845e-06	
15.046705	-6.919285e-06	-7.658572e-05	2.178827e-06	3.278096e-06	
15.047705	-7.552027e-06	-5.490472e-05	6.968659e-07	1.918407e-06	
15.048706	-6.330536e-06	-3.232497e-05	8.300062e-07	2.710147e-06	
15.049707	-6.271087e-06	1.658238e-06	1.504595e-06	4.503334e-06	
15.050708	-4.661027e-06	1.560748e-05	1.203104e-07	1.738476e-06	
15.051709	-1.459449e-06	7.125573e-05	-1.973487e-06	2.111622e-06	
15.052710	1.031788e-06	1.564951e-04	-1.443426e-06	3.861327e-06	
15.053710	2.462425e-06	1.665145e-04	-1.020714e-06	2.214228e-06	
15.054711	9.306131e-07	1.291693e-04	-2.503822e-06	3.935217e-07	
15.055712	-2.355754e-06	7.446230e-05	-1.216043e-06	-3.956803e-06	
15.056713	-6.594388e-06	2.743507e-05	2.771322e-06	-8.109516e-06	
15.057714	-9.242149e-06	2.038605e-05	3.152467e-06	-7.582508e-06	
15.058714	-6.281113e-06	-9.055904e-06	1.125979e-06	-5.541108e-06	
15.059715	-3.395375e-06	-6.083954e-05	4.289511e-07	-6.166223e-06	
15.060716	-5.596715e-07	-8.281165e-05	-7.689424e-07	-7.146404e-06	
15.061717	2.988541e-06	-7.797221e-05	-5.613043e-07	-4.152916e-06	
15.062718	4.404149e-06	-5.192963e-05	4.109721e-07	-2.134395e-06	
15.063718	8.413847e-06	-1.920329e-05	-8.393939e-07	-9.935102e-08	
15.064719	8.191640e-06	-1.049557e-05	-2.400759e-07	2.069912e-06	
15.065720	3.254870e-06	-3.171153e-05	7.530298e-07	-8.369232e-07	
15.066721	2.316098e-06	-6.569330e-05	-6.377054e-07	8.143868e-08	
15.067722	-1.164281e-06	-6.337745e-05	2.256612e-07	3.601195e-06	
15.068723	-4.615810e-06	6.634554e-06	1.964975e-06	1.864387e-06	
15.069723	-3.582040e-06	5.516660e-05	-1.111565e-08	2.433935e-06	
15.070724	-4.042039e-06	2.374816e-05	-3.779963e-06	6.207924e-06	
15.071725	-4.539401e-06	-3.392939e-06	-3.387077e-06	5.740078e-06	
15.072726	-2.670082e-06	8.988273e-06	2.421162e-06	3.064322e-06	
15.073727	6.258846e-08	1.659017e-05	3.739001e-06	4.031360e-06	
15.074727	7.805287e-08	4.931272e-06	-2.503913e-06	3.191513e-06	
15.075728	-1.178590e-06	-2.116436e-05	-2.884664e-06	-1.525213e-06	
15.076729	1.583483e-07	-3.179206e-05	2.484543e-06	-1.253747e-06	
15.077730	4.805057e-07	-1.150088e-05	-1.553512e-07	6.949195e-07	
15.078731	1.408343e-06	-2.354698e-05	-3.247682e-06	-2.140708e-07	
15.079731	3.766271e-06	-4.387314e-05	9.576025e-07	-2.027792e-06	
15.080732	4.280307e-06	1.638530e-05	2.108699e-06	-4.171783e-06	
15.081733	5.557230e-06	5.244978e-05	2.790957e-07	-2.990490e-06	
15.082734	5.231875e-06	8.402276e-06	-3.197374e-07	-2.957580e-06	
15.083735	3.060977e-06	1.055394e-05	1.052067e-07	-4.083784e-06	
15.084736	4.093645e-06	3.436871e-05	8.263605e-07	-2.333713e-06	
15.085736	5.509573e-06	3.556198e-05	-1.530231e-06	-3.115813e-06	
15.086737	4.146536e-06	6.603698e-05	-3.823259e-06	-2.329528e-06	
15.087738	1.653558e-06	7.139807e-05	-2.285140e-06	6.975473e-07	
15.088739	-1.149952e-06	3.488179e-05	4.785543e-07	5.954357e-07	
15.089740	-3.376750e-06	-2.258277e-06	-5.867066e-08	8.486284e-07	
15.090740	-2.958472e-06	-4.785272e-05	-3.154188e-07	1.758119e-06	
15.091741	-1.846028e-06	-5.958657e-05	2.455055e-06	2.550510e-06	
15.092742	-1.073331e-06	-2.990674e-05	-2.853921e-07	2.821264e-06	
15.093743	3.354487e-06	-4.619893e-06	-2.654167e-06	-1.867716e-07	
15.094744	6.477986e-06	1.255225e-05	1.188685e-06	-1.745485e-06	
15.095745	3.225052e-06	1.585880e-05	2.049260e-06	9.715752e-07	
15.096745	1.578332e-06	-4.035103e-07	5.051521e-07	6.448331e-07	
15.097746	1.208967e-06	-2.983587e-05	-4.127746e-07	-1.298744e-06	
15.098747	-1.137149e-06	-3.006832e-05	1.328633e-06	3.699817e-07	
15.099748	-5.662756e-07	7.913752e-06	3.890960e-06	2.568129e-06	
15.100749	-1.158346e-06	1.322632e-06	1.187285e-06	5.170983e-06	
15.101749	-2.927973e-06	-3.290902e-05	-3.291393e-07	6.322785e-06	
15.102750	-1.786880e-06	-2.422645e-05	2.238142e-06	4.103613e-06	
15.103751	-4.397938e-06	-1.120189e-05	1.831371e-06	4.114701e-06	
15.104752	-7.208720e-06	-3.097444e-05	-9.146685e-07	4.036385e-06	
15.105753	-4.197877e-06	-6.809791e-05	-1.438227e-06	4.094972e-07	
15.106753	-5.753920e-06	-8.886542e-05	-1.276908e-06	-4.406812e-07	
15.107754	-9.118086e-06	-7.938370e-05	-1.499444e-06	-1.245653e-06	
15.108755	-4.224964e-06	-6.809270e-05	9.496130e-08	-4.666263e-06	
15.109756	-1.659238e-06	-3.995686e-05	1.472180e-06	-4.914253e-06	
15.110757	-9.851571e-07	4.969240e-05	1.243289e-06	-5.497946e-06	
15.111758	3.797035e-06	1.096303e-04	1.095596e-08	-4.850634e-06	
15.112758	5.646052e-06	8.684810e-05	-2.480015e-06	8.271666e-07	
15.113759	7.683342e-06	1.242543e-04	-2.649548e-06	1.282879e-06	
15.114760	7.260841e-06	1.717099e-04	1.059602e-06	-2.144958e-06	
15.115761	5.093563e-07	1.031823e-04	1.999614e-06	-3.749802e-07	
15.116762	-5.120442e-06	4.024202e-05	-7.828786e-07	1.882459e-06	
15.117762	-8.739905e-06	2.490364e-05	2.890106e-08	1.229996e-06	
15.118763	-1.045182e-05	4.235713e-06	1.356258e-06	-9.023398e-07	
15.119764	-9.674386e-06	-1.345770e-05	-9.318370e-07	-2.783642e-06	
15.120765	-4.666044e-06	-3.189538e-05	-1.842718e-06	-2.368447e-06	
15.121766	7.873853e-07	-3.312919e-05	-2.353492e-06	-2.365046e-06	
15.122766	1.568435e-06	-3.515015e-05	-3.680552e-06	-1.893367e-06	
15.123767	3.757390e-06	-5.807121e-05	-1.353516e-06	-9.580453e-07	
15.124768	5.458404e-06	-6.109483e-05	1.231913e-06	-2.058747e-06	
15.125769	6.580564e-06	-4.661034e-05	7.875438e-07	-2.231065e-06	
15.126770	9.103074e-06	1.906808e-06	1.544169e-06	-2.606340e-06	
15.127771	5.666060e-06	6.511573e-05	1.366537e-06	-1.772156e-06	
15.128771	1.904257e-06	2.948626e-05	1.519863e-07	1.064107e-06	
15.129772	2.070568e-06	-4.763783e-05	6.713782e-07	1.864057e-06	
15.130773	1.574837e-06	-4.712140e-05	-2.557242e-07	2.275890e-06	
15.131774	1.515103e-06	-2.273985e-05	-3.805833e-07	9.177260e-07	
15.132775	1.366481e-06	-1.940904e-05	-3.446179e-07	5.597205e-07	
15.133775	-8.567529e-07	-1.706045e-05	-1.221052e-06	2.428836e-06	
15.134776	-3.709372e-06	-1.641283e-05	2.086387e-06	2.184798e-06	
15.135777	-3.934491e-06	-1.171374e-05	3.682595e-06	4.079662e-06	
15.136778	-3.321831e-06	-1.091389e-06	1.949167e-06	2.820291e-06	
15.137779	-1.687739e-06	-3.105054e-06	2.821206e-06	-1.549055e-06	
15.138779	2.393562e-06	-8.873253e-06	5.146143e-07	5.733145e-07	
15.139780	3.653160e-06	-2.559310e-06	-1.841724e-06	1.201269e-06	
15.140781	2.757258e-06	7.401910e-07	7.458524e-07	-1.993521e-07	
15.141782	2.535278e-06	1.582420e-06	-6.387347e-07	6.871985e-07	
15.142783	2.218389e-06	9.479893e-06	-2.853356e-06	1.120837e-07	
15.143784	1.567905e-06	1.287441e-05	-2.092740e-06	9.747234e-07	
15.144784	1.465896e-06	7.548016e-06	-2.315438e-06	-5.357250e-07	
15.145785	2.255381e-06	5.980983e-06	-6.352136e-07	-1.926708e-06	
15.146786	1.209032e-06	6.493924e-06	1.914005e-06	1.979413e-06	
15.147787	3.148541e-07	-2.323060e-06	8.286014e-07	5.807554e-07	
15.148788	1.015204e-06	-4.721068e-06	-1.787561e-06	7.466982e-07	
15.149788	7.465761e-07	7.677763e-06	-1.597508e-06	4.655745e-06	
15.150789	6.939812e-07	2.124831e-05	-2.211895e-06	6.579459e-07	
15.151790	-1.916702e-07	3.109672e-05	-3.572163e-06	1.262839e-07	
15.152791	-3.321574e-06	2.735638e-05	-3.907935e-07	1.907889e-06	
15.153792	-4.206767e-06	1.015229e-05	9.980656e-07	-3.128931e-07	
15.154793	-9.262018e-07	5.420228e-06	-6.676433e-07	2.797495e-06	
15.155793	-1.172091e-06	2.414204e-05	3.928927e-07	2.672717e-06	
15.156794	-6.667496e-06	3.302082e-05	2.082992e-06	-3.374685e-07	
15.157795	-9.352400e-06	1.189877e-05	2.586224e-06	7.891263e-07	
15.158796	-9.141840e-06	-1.001491e-05	2.990673e-06	-1.516476e-06	
15.159797	-6.003057e-06	-1.564788e-05	3.426966e-06	-2.790359e-06	
15.160797	-1.042359e-06	-1.053642e-05	1.831296e-06	-2.979379e-06	
15.161798	-3.693326e-07	-1.519773e-05	2.348075e-07	-3.795919e-06	
15.162799	-5.732071e-07	-3.411026e-05	2.969934e-06	-1.350971e-06	
15.163800	1.782466e-06	-3.248368e-05	3.848227e-06	-9.656879e-07	
15.164801	5.329031e-06	-1.587856e-05	1.002128e-06	-5.292724e-07	
15.165801	6.640682e-06	-9.940251e-06	2.116897e-07	5.165222e-08	
15.166802	5.600200e-06	-2.388256e-05	-2.458473e-06	-1.592374e-06	
15.167803	6.317487e-06	-4.126984e-05	-4.234954e-06	-1.815474e-06	
15.168804	4.428206e-06	-3.406589e-05	-1.765532e-06	-1.920741e-06	
15.169805	4.305167e-08	-3.925592e-05	-1.046175e-06	-2.845339e-06	
15.170806	-8.733367e-07	-1.777808e-05	1.098888e-06	-4.305833e-06	
15.171806	6.985950e-07	4.092907e-05	2.329149e-06	-3.210128e-06	
15.172807	-1.330442e-06	1.493208e-05	-3.761735e-07	-9.169561e-07	
15.173808	-4.553349e-06	-4.406259e-06	-2.777705e-06	-1.178912e-06	
15.174809	6.286417e-07	4.108616e-05	-3.303314e-06	-1.579536e-06	
15.175810	3.839451e-06	3.656663e-05	-8.553600e-07	-2.674460e-06	
15.176810	1.772714e-06	3.242377e-05	-1.359620e-06	4.801636e-07	
15.177811	4.373356e-06	3.099384e-05	-3.032990e-06	4.003433e-06	
15.178812	3.320787e-06	1.563253e-05	-2.165973e-06	-1.108073e-07	
15.179813	4.950823e-07	3.951729e-05	-1.281830e-06	9.433659e-07	
15.180814	4.992743e-07	2.997222e-05	-3.196121e-07	4.220641e-06	
15.181814	-3.093483e-06	-4.104377e-06	-2.273459e-06	1.421783e-06	
15.182815	-4.130990e-06	5.345815e-06	-8.096497e-07	2.995417e-06	
15.183816	-1.609845e-06	1.498361e-05	1.550546e-06	6.275821e-06	
15.184817	-1.178830e-06	3.604066e-06	-6.094575e-07	5.554917e-06	
15.185818	8.971208e-07	-8.618090e-06	2.405327e-06	2.684627e-06	
15.186819	4.397530e-06	-1.102912e-05	3.124440e-06	-1.866749e-07	
15.187819	4.384816e-06	-7.651610e-06	1.872866e-06	3.426945e-07	
15.188820	3.691414e-06	-8.388330e-06	5.209489e-06	6.837945e-07	
15.189821	3.804698e-06	-7.895291e-06	1.148853e-06	1.431626e-06	
15.190822	1.149415e-06	-6.271887e-06	-2.366719e-06	2.894818e-06	
15.191823	-9.985936e-07	-8.127437e-06	-7.629893e-08	-1.503662e-06	
15.192823	-1.951793e-06	-6.013833e-06	-1.670419e-06	-4.338897e-06	
15.193824	-3.724083e-06	-6.698364e-06	2.219511e-07	-1.001457e-06	
15.194825	-5.133631e-06	-1.377489e-05	2.504359e-06	-2.408502e-07	
15.195826	-7.746570e-06	-1.428838e-05	-6.969899e-07	-7.366456e-07	
15.196827	-1.046641e-05	-2.102927e-05	1.187390e-06	7.061493e-07	
15.197828	-1.426554e-05	-3.530846e-05	2.204291e-06	-1.462990e-07	
15.198828	-1.625682e-05	-3.990731e-05	-1.491994e-06	-2.037764e-06	
15.199829	-1.007641e-05	-3.515174e-05	7.631914e-07	-1.233073e-06	
15.200830	-4.070307e-06	-2.633952e-05	1.318969e-06	-2.230474e-06	
15.201831	2.450660e-07	-1.631113e-05	-2.761876e-06	-5.151935e-06	
15.202832	5.084621e-06	4.331964e-06	-1.822960e-06	-2.475830e-06	
15.203832	-2.592829e-06	1.939078e-05	3.863123e-07	2.429625e-06	
15.204833	-7.094468e-06	3.276591e-05	6.997221e-07	1.643599e-06	
15.205834	1.106105e-05	5.734305e-05	-2.718044e-07	-2.743265e-06	
15.206835	2.134645e-05	4.286088e-05	-1.135177e-06	-1.709023e-06	
15.207836	1.429586e-05	1.322430e-05	4.097541e-07	2.631893e-06	
15.208836	1.226508e-05	5.931757e-06	1.159672e-06	-2.079825e-07	
15.209837	1.018872e-05	-6.198767e-06	1.271346e-06	-3.690797e-06	
15.210838	2.108836e-06	-5.811230e-06	3.368369e-07	-2.210541e-06	
15.211839	2.018125e-06	-1.964889e-06	-1.155594e-06	-2.557175e-06	
15.212840	1.237576e-05	-9.095003e-06	-9.459863e-07	3.540225e-07	
15.213841	1.303011e-05	-7.620781e-06	-1.429646e-06	9.069559e-06	
15.214841	4.557343e-06	-4.816465e-06	3.370239e-07	1.105514e-05	
15.215842	1.362340e-06	6.903276e-06	1.998057e-06	5.423998e-06	
15.216843	-2.129454e-06	1.489737e-05	5.576714e-07	1.216202e-07	
15.217844	-2.290408e-06	2.781473e-06	2.002892e-06	-3.438002e-06	
15.218845	-1.702784e-06	-7.667673e-06	2.055941e-06	-4.056077e-06	
15.219845	-8.413202e-06	-2.016053e-05	-1.813982e-06	-3.347246e-06	
15.220846	-7.820678e-06	-1.349509e-05	-3.380412e-06	-3.514441e-06	
15.221847	-3.971570e-06	2.017255e-05	-1.728414e-06	-3.375950e-06	
15.222848	-8.504668e-06	2.082968e-05	-4.452010e-07	-1.785171e-06	
15.223849	-1.057960e-05	-5.429838e-07	-9.243149e-07	1.230100e-06	
15.224849	-7.934109e-06	9.890522e-06	3.806238e-07	2.190164e-06	
15.225850	-6.822985e-06	2.519869e-05	1.120489e-06	2.137031e-06	
15.226851	-6.712921e-06	1.101252e-05	-6.157736e-07	3.745027e-06	
15.227852	-4.656802e-06	-2.598701e-06	-5.900302e-07	1.851625e-06	
15.228853	4.384080e-07	1.520051e-06	-1.207646e-06	-2.915595e-06	
15.229854	4.125829e-06	3.319920e-06	-2.919202e-06	-2.729177e-06	
15.230854	4.506389e-06	2.810151e-06	-1.673538e-06	2.873548e-06	
15.231855	5.750546e-06	1.669712e-06	4.817971e-07	5.654202e-06	
15.232856	7.190816e-06	-6.771029e-06	5.875202e-07	-4.688613e-07	
15.233857	4.113495e-06	-1.360144e-05	-2.743940e-07	-6.196967e-06	
15.234858	-8.456356e-07	-1.576506e-05	5.551380e-07	-2.285609e-06	
15.235858	-7.569788e-07	-1.634222e-05	3.625803e-06	1.311431e-06	
15.236859	1.951439e-06	-1.656660e-05	3.979089e-06	-2.807944e-06	
15.237860	-1.447797e-07	-1.627182e-05	1.403770e-06	-3.692559e-06	
15.238861	-3.329046e-06	-9.647126e-06	1.475329e-06	3.026214e-06	
15.239862	-6.858475e-07	-7.091364e-06	6.619660e-07	1.836964e-06	
15.240862	8.081395e-07	1.003462e-05	-1.438729e-06	-5.038252e-06	
15.241863	-2.561575e-06	4.330377e-05	4.442682e-07	-2.495599e-06	
15.242864	-3.949673e-06	1.582821e-05	1.548196e-08	-4.804253e-06	
15.243865	-6.240139e-06	-3.918381e-05	-3.497450e-06	-1.536536e-05	
15.244866	-7.805120e-06	-2.940972e-05	-1.862518e-06	-1.354257e-05	
15.245867	-2.683723e-06	2.307137e-06	-1.084239e-06	-1.661045e-06	
15.246867	-1.518702e-07	8.158380e-06	-2.156054e-06	6.537884e-06	
15.247868	-6.791954e-07	2.014058e-06	2.866998e-06	1.386134e-05	
15.248869	4.019054e-06	-4.625555e-06	3.793166e-06	2.493408e-05	
15.249870	7.590532e-06	-3.788307e-06	-4.801830e-07	2.757941e-05	
15.250871	6.227592e-06	-1.324132e-06	7.452816e-07	2.242506e-05	
15.251871	5.184735e-06	-2.755386e-06	-6.153053e-08	2.176121e-05	
15.252872	4.295582e-06	-3.775312e-07	-4.347182e-06	2.984032e-05	
15.253873	5.983582e-06	1.211561e-05	-1.942404e-06	2.779207e-05	
15.254874	6.063146e-06	2.655559e-05	2.441743e-06	-2.411113e-05	
15.255875	-7.262395e-07	2.334242e-05	5.743959e-07	-6.897796e-05	
15.256876	9.950336e-07	4.883159e-06	-1.574910e-06	-3.670952e-05	
15.257876	5.421574e-06	-1.330447e-06	-6.413328e-07	7.007712e-07	
15.258877	-2.171837e-06	9.664002e-06	-1.072078e-06	5.744273e-07	
15.259878	-6.674510e-06	1.513007e-06	-1.954800e-06	6.014701e-06	
15.260879	-3.755609e-06	-2.521335e-05	-6.414361e-07	8.149567e-06	
15.261880	-5.032205e-07	-2.787445e-05	2.138520e-06	-2.352941e-05	
15.262880	-1.666002e-06	-8.891307e-06	2.169913e-06	-4.369638e-05	
15.263881	-6.479184e-06	4.827281e-06	5.346119e-08	-1.345399e-05	
15.264882	-2.913154e-06	-8.629886e-07	4.691865e-07	8.439209e-06	
15.265883	2.056917e-06	-1.851732e-05	2.384153e-06	1.444828e-06	
15.266884	7.351503e-07	-2.522651e-05	2.934003e-06	-1.313760e-06	
15.267884	1.478129e-06	1.420039e-06	6.721805e-07	-3.751740e-06	
15.268885	2.580103e-06	3.234199e-05	-2.943888e-07	2.158018e-06	
15.269886	1.437134e-06	1.625814e-05	1.453014e-06	1.173966e-05	
15.270887	9.378035e-07	1.335253e-05	2.008354e-06	4.554713e-06	
15.271888	1.844240e-06	3.150606e-05	3.239895e-06	1.754245e-07	
15.272889	1.164907e-06	1.447311e-05	3.372658e-06	5.799627e-06	
15.273889	-1.245806e-06	1.428067e-05	2.798761e-07	5.954779e-06	
15.274890	-7.956148e-07	1.683348e-06	-1.722482e-06	7.003500e-06	
15.275891	1.756047e-07	-2.623273e-05	-2.766092e-06	1.253453e-05	
15.276892	-7.467456e-08	-1.708074e-05	-3.660825e-06	1.133407e-05	
15.277893	1.017667e-06	-4.321607e-05	-3.543945e-06	7.585153e-06	
15.278893	2.543760e-06	-1.599975e-05	-3.636959e-06	1.090200e-05	
15.279894	1.057571e-06	6.808743e-05	-4.802577e-06	1.022736e-05	
15.280895	-2.569367e-06	2.600108e-05	-5.786569e-06	3.019226e-06	
15.281896	-4.081010e-06	-2.244198e-05	-1.693442e-06	5.128760e-06	
15.282897	-5.320276e-06	7.838737e-06	3.712102e-06	-3.226680e-06	
15.283897	-3.801340e-06	1.909483e-05	2.458792e-06	-2.113164e-05	
15.284898	5.570748e-07	1.106998e-05	1.816221e-07	-7.821480e-06	
15.285899	-1.125752e-06	-1.671560e-05	2.488488e-07	1.062448e-05	
15.286900	-3.780299e-06	-3.157179e-05	6.330073e-07	4.646498e-06	
15.287901	-1.307451e-06	-2.627227e-05	7.728058e-07	-8.622568e-06	
15.288902	1.494270e-06	-3.132224e-05	-6.704576e-07	-1.625133e-05	
15.289902	9.558876e-07	-9.269414e-06	2.761947e-07	-8.170914e-06	
15.290903	-2.833615e-06	1.251995e-05	2.122672e-06	-2.431175e-06	
15.291904	-3.961719e-06	4.526136e-06	1.466930e-06	-1.318959e-06	
15.292905	-6.749824e-07	7.243169e-06	1.558223e-06	1.323024e-05	
15.293906	2.469174e-06	8.629235e-06	4.319666e-07	1.960134e-05	
15.294906	2.479028e-06	-5.350748e-06	-5.291798e-07	2.513245e-05	
15.295907	8.712637e-07	-6.430017e-06	1.179263e-06	2.925326e-05	
15.296908	3.292012e-06	4.440837e-06	6.899585e-07	6.761725e-06	
15.297909	7.039132e-06	8.283567e-06	1.148403e-06	1.217598e-05	
15.298910	5.391888e-06	4.845627e-06	3.208302e-06	3.130135e-05	
15.299910	6.163388e-07	2.394915e-06	1.410699e-07	-2.765156e-06	
15.300911	-1.452517e-06	3.595609e-06	-1.586677e-06	-2.691820e-05	
15.301912	-1.126530e-06	3.169057e-06	7.326382e-07	-1.921090e-05	
15.302913	-2.639010e-06	1.525440e-06	4.131431e-07	-3.082834e-05	
15.303914	-3.590887e-06	3.159006e-06	1.380221e-06	-5.866551e-05	
15.304915	-2.638520e-06	3.677136e-06	3.362163e-06	-6.507607e-05	
15.305915	-3.210026e-06	-2.987482e-06	1.844121e-06	-2.447878e-05	
15.306916	-2.722364e-06	-1.719835e-05	1.037654e-06	4.430293e-06	
15.307917	-2.557142e-07	-2.293023e-05	1.504833e-06	-4.614050e-06	
15.308918	-1.280531e-06	-1.836260e-05	-1.409963e-07	5.265538e-06	
15.309919	-1.999669e-06	-3.456220e-06	-4.066629e-06	1.988104e-05	
15.310919	2.560215e-06	2.391858e-05	-6.961958e-06	1.127819e-05	
15.311920	3.569388e-06	2.049928e-05	-6.518231e-06	7.327102e-06	
15.312921	3.233216e-06	2.301069e-05	-4.609687e-06	1.424716e-05	
15.313922	7.987565e-06	5.238859e-05	-2.809636e-06	1.759201e-05	
15.314923	7.742692e-06	1.146888e-05	-2.575524e-07	2.014826e-05	
15.315924	3.603639e-06	-3.778515e-05	2.066423e-06	1.531536e-05	
15.316924	3.731592e-06	-1.517698e-05	-1.098154e-06	3.353736e-06	
15.317925	4.858493e-06	-5.249760e-06	-4.402622e-06	2.488442e-06	
15.318926	3.847897e-06	-2.118566e-05	-1.534405e-06	-1.028127e-06	
15.319927	1.021972e-06	-1.875905e-05	-1.243885e-06	-9.984943e-06	
15.320928	-1.473412e-06	-2.768618e-06	-2.232819e-06	-5.839106e-06	
15.321928	-3.604084e-06	7.346916e-06	3.409103e-07	7.594779e-07	
15.322929	-4.885472e-06	1.965038e-06	1.910799e-06	2.297355e-06	
15.323930	-4.550546e-06	-7.794821e-07	3.784070e-06	2.975161e-06	
15.324931	-5.477420e-06	9.377210e-06	6.910496e-06	6.754048e-07	
15.325932	-5.719913e-06	1.630985e-05	6.394630e-06	-7.503146e-07	
15.326932	-4.591451e-06	1.587348e-05	4.009780e-07	3.874017e-06	
15.327933	-3.958536e-06	1.586491e-05	-2.430024e-06	3.982343e-06	
15.328934	-4.375423e-06	1.535417e-05	6.102649e-07	-2.217816e-06	
15.329935	-3.944065e-06	8.138501e-06	3.219228e-06	-7.950357e-07	
15.330936	4.447104e-07	-1.236034e-05	6.314300e-06	6.643176e-07	
15.331937	1.341670e-06	-3.191694e-05	6.976340e-06	-7.656466e-07	
15.332937	4.153708e-07	-2.784132e-05	2.990479e-06	2.169501e-06	
15.333938	2.326325e-06	-1.014452e-05	7.397599e-08	4.633310e-06	
15.334939	-1.877652e-07	4.058408e-06	2.014065e-06	8.228699e-06	
15.335940	-7.979158e-07	5.523034e-06	2.443050e-06	8.880782e-06	
15.336941	1.326541e-06	-7.414855e-06	-4.141162e-06	8.754527e-06	
15.337941	-6.503952e-07	-1.803011e-05	-5.765243e-06	1.271271e-05	
15.338942	1.666900e-07	-2.193118e-05	-1.664018e-06	1.191446e-05	
15.339943	3.241176e-06	-1.768777e-05	-1.695357e-06	9.911858e-06	
15.340944	4.975509e-06	-4.196882e-06	-2.147287e-06	3.173599e-06	
15.341945	6.479734e-06	3.580254e-06	-3.057651e-06	-1.006404e-05	
15.342945	3.363775e-06	3.613190e-06	-6.362954e-06	-1.737035e-05	
15.343946	-1.452365e-06	7.684131e-06	-5.840662e-06	-2.133404e-05	
15.344947	-1.165920e-06	3.450539e-05	-3.406928e-06	-2.517944e-05	
15.345948	8.249817e-08	5.475006e-05	-3.523474e-06	-2.089183e-05	
15.346949	4.694147e-07	2.376690e-05	-4.403961e-07	-8.454848e-06	
15.347950	1.229504e-06	-7.936548e-07	2.555762e-06	-5.611474e-06	
15.348950	-1.868354e-06	1.419465e-05	2.136007e-06	-1.336782e-05	
15.349951	-5.330044e-06	1.467193e-05	3.414551e-06	-1.439427e-05	
15.350952	-3.377702e-06	3.450151e-06	3.000605e-06	-6.447402e-06	
15.351953	-1.071610e-06	4.779981e-06	2.891995e-06	6.128168e-06	
15.352954	-2.126990e-06	4.142806e-06	5.022728e-06	9.811589e-06	
15.353954	-2.658222e-08	-6.051186e-08	4.982387e-06	2.961296e-06	
15.354955	4.945441e-06	-1.503243e-05	2.903520e-06	6.654935e-07	
15.355956	3.819751e-06	-4.127128e-05	1.586685e-07	-9.445677e-06	
15.356957	2.591965e-06	-4.107058e-05	-5.354369e-07	-1.899736e-05	
15.357958	3.053879e-06	-2.391527e-05	-2.445046e-06	-2.127921e-07	
15.358959	-1.144699e-06	-2.732345e-05	-3.683229e-06	1.825486e-05	
15.359959	-1.436961e-06	-1.726138e-05	6.988860e-07	2.162423e-05	
15.360960	1.953918e-07	1.815556e-05	-4.821547e-07	2.853853e-05	
15.361961	-2.056433e-06	3.557362e-05	-7.098999e-06	3.636222e-05	
15.362962	-2.459147e-06	3.437521e-05	-7.279147e-06	4.713282e-05	
15.363963	-2.337115e-06	2.054394e-05	-4.729841e-06	4.904686e-05	
15.364963	-2.160254e-06	-4.337310e-07	-1.356328e-06	2.967434e-05	
15.365964	3.980561e-07	-1.653223e-05	3.076114e-06	5.894276e-06	
15.366965	3.103220e-06	-2.738828e-05	2.192992e-06	-1.134902e-05	
15.367966	2.088142e-06	-3.747174e-05	1.956536e-06	-1.896504e-05	
15.368967	4.616692e-07	-5.357606e-05	3.755488e-06	-1.836906e-05	
15.369967	2.481865e-06	-1.237779e-05	2.079586e-06	-1.929919e-05	
15.370968	3.378854e-06	5.343918e-05	2.256665e-06	-2.907342e-05	
15.371969	3.163494e-06	1.438706e-05	4.505523e-07	-3.978218e-05	
15.372970	5.513917e-07	-4.723479e-05	-2.837301e-06	-3.850692e-05	
15.373971	-3.190399e-06	-3.860833e-05	1.308627e-06	-3.566947e-05	
15.374972	-1.369727e-06	5.087870e-06	4.296106e-06	-3.827971e-05	
15.375972	-6.715864e-07	6.760515e-05	2.744901e-06	-2.628367e-05	
15.376973	-1.911279e-06	6.692604e-05	3.356435e-06	-5.646788e-06	
15.377974	-2.788973e-06	4.415761e-06	2.475002e-06	-1.777710e-06	
15.378975	-4.365813e-06	7.174125e-06	-1.318877e-06	-1.698389e-06	
15.379976	-2.038731e-06	3.553314e-05	-2.881430e-06	9.013982e-06	
15.380976	-8.230985e-07	1.450719e-05	-4.625165e-06	1.808177e-05	
15.381977	-3.367165e-06	-1.786561e-06	-8.402591e-06	1.674547e-05	
15.382978	-5.856490e-06	3.099546e-06	-7.128347e-06	1.145743e-05	
15.383979	-4.774191e-06	1.707424e-06	-1.823685e-06	1.349174e-05	
15.384980	-1.713163e-06	-4.247431e-06	3.793337e-06	1.632508e-05	
15.385980	-3.797335e-06	-6.672022e-06	8.550992e-06	1.403027e-05	
15.386981	-3.384555e-06	-6.917799e-06	6.938448e-06	1.625757e-05	
15.387982	9.623251e-07	-8.655509e-06	5.147813e-06	2.497617e-05	
15.388983	2.859345e-06	-9.487788e-06	4.075497e-06	3.414801e-05	
15.389984	5.185756e-06	-9.784101e-06	-1.808236e-06	3.697130e-05	
15.390985	4.179158e-06	-1.047659e-05	-3.698457e-06	3.090350e-05	
15.391985	1.079405e-06	-5.894442e-06	-2.386925e-06	2.022753e-05	
15.392986	7.616624e-07	3.950889e-06	-3.228195e-06	5.237153e-06	
15.393987	1.989876e-06	8.008585e-06	-5.500389e-06	-1.182378e-05	
15.394988	6.557930e-06	6.282097e-06	-6.787353e-06	-2.235764e-05	
15.395989	1.022939e-05	7.380180e-06	-2.270951e-06	-3.840821e-05	
15.396989	8.869735e-06	5.901512e-06	-3.996510e-07	-5.239567e-05	
15.397990	8.978921e-06	1.780540e-07	-2.803638e-06	-3.316929e-05	
15.398991	9.424217e-06	-2.547039e-06	1.473574e-06	-8.792516e-06	
15.399992	6.440672e-06	-6.096304e-06	5.098656e-06	-7.647649e-06	
15.400993	5.414858e-06	-1.143888e-05	4.207209e-06	-1.393515e-05	
15.401993	4.239576e-06	-1.031037e-05	4.565788e-06	-1.536955e-05	
15.402994	-4.637677e-07	-5.661134e-06	2.764180e-07	-6.808010e-06	
15.403995	-6.767710e-06	-3.219329e-06	-2.342083e-06	1.886364e-06	
15.404996	-1.037434e-05	1.000413e-06	2.289819e-06	6.587339e-06	
15.405997	-8.047494e-06	1.026484e-05	3.238061e-06	1.350375e-05	
15.406998	-6.852963e-06	1.797321e-05	1.538033e-06	1.801476e-05	
15.407998	-5.773837e-06	1.255536e-05	-1.249591e-06	1.723016e-05	
15.408999	-4.107448e-06	-1.539986e-06	-3.675284e-06	1.524712e-05	
15.410000	-8.112614e-06	-9.231567e-06	4.575176e-07	1.370923e-05	
