1.040000	2.705393e-05	4.155229e-06	1.616811e-06	1.057891e-05
1.041001	2.733935e-05	4.115989e-06	1.623721e-06	1.073799e-05
1.042001	2.763374e-05	4.074741e-06	1.630802e-06	1.090279e-05
1.043002	2.793613e-05	4.031575e-06	1.638033e-06	1.107289e-05
1.044002	2.824559e-05	3.986577e-06	1.645391e-06	1.124785e-05
1.045003	2.856116e-05	3.939837e-06	1.652856e-06	1.142725e-05
1.046003	2.888187e-05	3.891441e-06	1.660406e-06	1.161066e-05
1.047004	2.920679e-05	3.841479e-06	1.668020e-06	1.179768e-05
1.048004	2.953495e-05	3.790038e-06	1.675677e-06	1.198785e-05
1.049005	2.986541e-05	3.737207e-06	1.683355e-06	1.218077e-05
1.050005	3.019721e-05	3.683073e-06	1.691033e-06	1.237601e-05
1.051006	3.052940e-05	3.627725e-06	1.698689e-06	1.257314e-05
1.052006	3.086102e-05	3.571250e-06	1.706302e-06	1.277174e-05
1.053007	3.119112e-05	3.513737e-06	1.713851e-06	1.297139e-05
1.054007	3.151875e-05	3.455275e-06	1.721315e-06	1.317165e-05
1.055008	3.184296e-05	3.395950e-06	1.728671e-06	1.337210e-05
1.056008	3.216279e-05	3.335851e-06	1.735899e-06	1.357233e-05
1.057009	3.247728e-05	3.275067e-06	1.742978e-06	1.377190e-05
1.058009	3.278550e-05	3.213685e-06	1.749886e-06	1.397038e-05
1.059010	3.308647e-05	3.151793e-06	1.756601e-06	1.416736e-05
1.060011	3.337926e-05	3.089480e-06	1.763103e-06	1.436241e-05
1.061011	3.366290e-05	3.026833e-06	1.769370e-06	1.455511e-05
1.062012	3.393645e-05	2.963941e-06	1.775380e-06	1.474502e-05
1.063012	3.419894e-05	2.900892e-06	1.781113e-06	1.493173e-05
1.064013	3.444944e-05	2.837774e-06	1.786546e-06	1.511481e-05
1.065013	3.468697e-05	2.774675e-06	1.791659e-06	1.529384e-05
1.066014	3.491060e-05	2.711683e-06	1.796431e-06	1.546838e-05
1.067014	3.511936e-05	2.648886e-06	1.800839e-06	1.563802e-05
1.068015	3.531232e-05	2.586373e-06	1.804862e-06	1.580233e-05
1.069015	3.548850e-05	2.524231e-06	1.808480e-06	1.596088e-05
1.070016	3.564696e-05	2.462548e-06	1.811671e-06	1.611326e-05
1.071016	3.578674e-05	2.401413e-06	1.814413e-06	1.625903e-05
1.072017	3.590690e-05	2.340914e-06	1.816685e-06	1.639778e-05
1.073017	3.600648e-05	2.281138e-06	1.818466e-06	1.652907e-05
1.074018	3.608452e-05	2.222175e-06	1.819734e-06	1.665248e-05
1.075018	3.614009e-05	2.164111e-06	1.820469e-06	1.676759e-05
1.076019	3.617291e-05	2.107032e-06	1.820668e-06	1.687424e-05
1.077019	3.618345e-05	2.051019e-06	1.820347e-06	1.697255e-05
1.078020	3.617228e-05	1.996152e-06	1.819528e-06	1.706269e-05
1.079020	3.613992e-05	1.942513e-06	1.818230e-06	1.714480e-05
1.080021	3.608693e-05	1.890181e-06	1.816473e-06	1.721904e-05
1.081022	3.601384e-05	1.839238e-06	1.814275e-06	1.728555e-05
1.082022	3.592121e-05	1.789765e-06	1.811657e-06	1.734450e-05
1.083023	3.580957e-05	1.741841e-06	1.808639e-06	1.739603e-05
1.084023	3.567947e-05	1.695549e-06	1.805239e-06	1.744030e-05
1.085024	3.553145e-05	1.650968e-06	1.801478e-06	1.747746e-05
1.086024	3.536605e-05	1.608179e-06	1.797376e-06	1.750767e-05
1.087025	3.518383e-05	1.567264e-06	1.792951e-06	1.753107e-05
1.088025	3.498531e-05	1.528303e-06	1.788224e-06	1.754782e-05
1.089026	3.477105e-05	1.491376e-06	1.783214e-06	1.755807e-05
1.090026	3.454159e-05	1.456564e-06	1.777940e-06	1.756197e-05
1.091027	3.429747e-05	1.423948e-06	1.772423e-06	1.755968e-05
1.092027	3.403924e-05	1.393610e-06	1.766682e-06	1.755136e-05
1.093028	3.376743e-05	1.365628e-06	1.760737e-06	1.753714e-05
1.094028	3.348260e-05	1.340085e-06	1.754607e-06	1.751720e-05
1.095029	3.318528e-05	1.317061e-06	1.748311e-06	1.749167e-05
1.096029	3.287603e-05	1.296637e-06	1.741871e-06	1.746071e-05
1.097030	3.255537e-05	1.278893e-06	1.735304e-06	1.742448e-05
1.098030	3.222386e-05	1.263911e-06	1.728631e-06	1.738312e-05
1.099031	3.188204e-05	1.251770e-06	1.721872e-06	1.733680e-05
1.100032	3.153046e-05	1.242552e-06	1.715045e-06	1.728566e-05
1.101032	3.116965e-05	1.236338e-06	1.708172e-06	1.722985e-05
1.102033	3.080016e-05	1.233208e-06	1.701270e-06	1.716953e-05
1.103033	3.042254e-05	1.233242e-06	1.694361e-06	1.710486e-05
1.104034	3.003732e-05	1.236523e-06	1.687463e-06	1.703597e-05
1.105034	2.964505e-05	1.243129e-06	1.680596e-06	1.696304e-05
1.106035	2.924628e-05	1.253143e-06	1.673780e-06	1.688620e-05
1.107035	2.884154e-05	1.266645e-06	1.667034e-06	1.680562e-05
1.108036	2.843139e-05	1.283715e-06	1.660378e-06	1.672145e-05
1.109036	2.801636e-05	1.304434e-06	1.653832e-06	1.663383e-05
1.110037	2.759699e-05	1.328884e-06	1.647416e-06	1.654292e-05
1.111037	2.717384e-05	1.357144e-06	1.641148e-06	1.644888e-05
1.112038	2.674744e-05	1.389296e-06	1.635049e-06	1.635186e-05
1.113038	2.631834e-05	1.425420e-06	1.629137e-06	1.625200e-05
1.114039	2.588709e-05	1.465598e-06	1.623434e-06	1.614947e-05
1.115039	2.545421e-05	1.509909e-06	1.617958e-06	1.604441e-05
1.116040	2.502027e-05	1.558434e-06	1.612730e-06	1.593698e-05
1.117040	2.458580e-05	1.611255e-06	1.607768e-06	1.582733e-05
1.118041	2.415134e-05	1.668451e-06	1.603092e-06	1.571562e-05
1.119041	2.371744e-05	1.730105e-06	1.598722e-06	1.560199e-05
1.120042	2.328465e-05	1.796296e-06	1.594678e-06	1.548661e-05
1.121043	2.285350e-05	1.867105e-06	1.590979e-06	1.536961e-05
1.122043	2.242454e-05	1.942613e-06	1.587645e-06	1.525116e-05
1.123044	2.199831e-05	2.022900e-06	1.584695e-06	1.513141e-05
1.124044	2.157536e-05	2.108048e-06	1.582149e-06	1.501051e-05
1.125045	2.115622e-05	2.198131e-06	1.580027e-06	1.488862e-05
1.126045	2.074121e-05	2.293047e-06	1.578330e-06	1.476587e-05
1.127046	2.033040e-05	2.392493e-06	1.577041e-06	1.464241e-05
1.128046	1.992383e-05	2.496154e-06	1.576144e-06	1.451837e-05
1.129047	1.952158e-05	2.603718e-06	1.575619e-06	1.439389e-05
1.130047	1.912368e-05	2.714871e-06	1.575450e-06	1.426910e-05
1.131048	1.873020e-05	2.829298e-06	1.575618e-06	1.414415e-05
1.132048	1.834119e-05	2.946687e-06	1.576106e-06	1.401916e-05
1.133049	1.795671e-05	3.066723e-06	1.576896e-06	1.389428e-05
1.134049	1.757680e-05	3.189092e-06	1.577970e-06	1.376964e-05
1.135050	1.720153e-05	3.313481e-06	1.579311e-06	1.364538e-05
1.136050	1.683095e-05	3.439575e-06	1.580900e-06	1.352163e-05
1.137051	1.646511e-05	3.567062e-06	1.582720e-06	1.339853e-05
1.138051	1.610407e-05	3.695628e-06	1.584753e-06	1.327622e-05
1.139052	1.574788e-05	3.824958e-06	1.586981e-06	1.315483e-05
1.140053	1.539660e-05	3.954738e-06	1.589386e-06	1.303450e-05
1.141053	1.505028e-05	4.084656e-06	1.591952e-06	1.291537e-05
1.142054	1.470897e-05	4.214398e-06	1.594659e-06	1.279757e-05
1.143054	1.437274e-05	4.343648e-06	1.597490e-06	1.268124e-05
1.144055	1.404164e-05	4.472095e-06	1.600428e-06	1.256652e-05
1.145055	1.371571e-05	4.599423e-06	1.603454e-06	1.245353e-05
1.146056	1.339502e-05	4.725320e-06	1.606551e-06	1.234243e-05
1.147056	1.307962e-05	4.849472e-06	1.609701e-06	1.223334e-05
1.148057	1.276956e-05	4.971564e-06	1.612887e-06	1.212640e-05
1.149057	1.246490e-05	5.091283e-06	1.616089e-06	1.202175e-05
1.150058	1.216570e-05	5.208315e-06	1.619291e-06	1.191953e-05
1.151058	1.187200e-05	5.322346e-06	1.622476e-06	1.181986e-05
1.152059	1.158387e-05	5.433063e-06	1.625624e-06	1.172290e-05
1.153059	1.130135e-05	5.540153e-06	1.628718e-06	1.162876e-05
1.154060	1.102451e-05	5.643300e-06	1.631741e-06	1.153760e-05
1.155060	1.075339e-05	5.742191e-06	1.634675e-06	1.144955e-05
1.156061	1.048806e-05	5.836513e-06	1.637501e-06	1.136473e-05
1.157061	1.022856e-05	5.925952e-06	1.640203e-06	1.128330e-05
1.158062	9.974951e-06	6.010194e-06	1.642762e-06	1.120538e-05
1.159063	9.727288e-06	6.088925e-06	1.645161e-06	1.113112e-05
1.160063	9.485625e-06	6.161831e-06	1.647382e-06	1.106064e-05
1.161064	9.250016e-06	6.228600e-06	1.649406e-06	1.099410e-05
1.162064	9.020517e-06	6.288916e-06	1.651217e-06	1.093161e-05
1.163065	8.797182e-06	6.342466e-06	1.652796e-06	1.087332e-05
1.164065	8.580066e-06	6.388937e-06	1.654126e-06	1.081937e-05
1.165066	8.369222e-06	6.428015e-06	1.655189e-06	1.076988e-05
1.166066	8.164707e-06	6.459385e-06	1.655967e-06	1.072501e-05
1.167067	7.966574e-06	6.482734e-06	1.656442e-06	1.068488e-05
1.168067	7.774878e-06	6.497749e-06	1.656597e-06	1.064963e-05
1.169068	7.589674e-06	6.504116e-06	1.656413e-06	1.061940e-05
1.170068	7.411017e-06	6.501520e-06	1.655874e-06	1.059432e-05
1.171069	7.238960e-06	6.489648e-06	1.654960e-06	1.057453e-05
1.172069	7.073560e-06	6.468186e-06	1.653655e-06	1.056017e-05
1.173070	6.914869e-06	6.436821e-06	1.651941e-06	1.055137e-05
1.174070	6.762944e-06	6.395239e-06	1.649799e-06	1.054827e-05
1.175071	6.617837e-06	6.343143e-06	1.647214e-06	1.055100e-05
1.176071	6.479573e-06	6.280685e-06	1.644185e-06	1.055950e-05
1.177072	6.348149e-06	6.208481e-06	1.640733e-06	1.057352e-05
1.178072	6.223557e-06	6.127172e-06	1.636880e-06	1.059280e-05
1.179073	6.105792e-06	6.037398e-06	1.632647e-06	1.061708e-05
1.180074	5.994847e-06	5.939800e-06	1.628055e-06	1.064610e-05
1.181074	5.890717e-06	5.835016e-06	1.623125e-06	1.067959e-05
1.182075	5.793394e-06	5.723687e-06	1.617878e-06	1.071729e-05
1.183075	5.702874e-06	5.606454e-06	1.612336e-06	1.075895e-05
1.184076	5.619150e-06	5.483955e-06	1.606520e-06	1.080430e-05
1.185076	5.542216e-06	5.356832e-06	1.600451e-06	1.085308e-05
1.186077	5.472065e-06	5.225724e-06	1.594150e-06	1.090503e-05
1.187077	5.408692e-06	5.091271e-06	1.587639e-06	1.095989e-05
1.188078	5.352090e-06	4.954114e-06	1.580938e-06	1.101740e-05
1.189078	5.302254e-06	4.814891e-06	1.574070e-06	1.107730e-05
1.190079	5.259177e-06	4.674244e-06	1.567054e-06	1.113932e-05
1.191079	5.222853e-06	4.532812e-06	1.559913e-06	1.120321e-05
1.192080	5.193276e-06	4.391236e-06	1.552668e-06	1.126870e-05
1.193080	5.170440e-06	4.250155e-06	1.545339e-06	1.133553e-05
1.194081	5.154338e-06	4.110209e-06	1.537948e-06	1.140345e-05
1.195081	5.144965e-06	3.972039e-06	1.530517e-06	1.147218e-05
1.196082	5.142315e-06	3.836284e-06	1.523067e-06	1.154148e-05
1.197082	5.146381e-06	3.703584e-06	1.515618e-06	1.161107e-05
1.198083	5.157157e-06	3.574580e-06	1.508192e-06	1.168070e-05
1.199084	5.174637e-06	3.449912e-06	1.500810e-06	1.175011e-05
1.200084	5.198815e-06	3.330219e-06	1.493493e-06	1.181904e-05
1.201085	5.229684e-06	3.216142e-06	1.486263e-06	1.188721e-05
1.202085	5.267240e-06	3.108320e-06	1.479141e-06	1.195438e-05
1.203086	5.311475e-06	3.007394e-06	1.472148e-06	1.202029e-05
1.204086	5.362383e-06	2.914003e-06	1.465306e-06	1.208466e-05
1.205087	5.419959e-06	2.828789e-06	1.458635e-06	1.214724e-05
1.206087	5.484196e-06	2.752389e-06	1.452156e-06	1.220778e-05
1.207088	5.555088e-06	2.685446e-06	1.445892e-06	1.226600e-05
1.208088	5.632629e-06	2.628598e-06	1.439863e-06	1.232164e-05
1.209089	5.716812e-06	2.582487e-06	1.434090e-06	1.237446e-05
1.210089	5.807633e-06	2.547751e-06	1.428594e-06	1.242417e-05
1.211090	5.905084e-06	2.525030e-06	1.423398e-06	1.247053e-05
1.212090	6.009159e-06	2.514966e-06	1.418522e-06	1.251328e-05
1.213091	6.119853e-06	2.518198e-06	1.413987e-06	1.255214e-05
1.214091	6.237158e-06	2.535365e-06	1.409814e-06	1.258687e-05
1.215092	6.361070e-06	2.567108e-06	1.406025e-06	1.261719e-05
1.216092	6.491582e-06	2.614068e-06	1.402641e-06	1.264285e-05
1.217093	6.628687e-06	2.676883e-06	1.399684e-06	1.266359e-05
1.218093	6.772380e-06	2.756194e-06	1.397173e-06	1.267915e-05
1.219094	6.922655e-06	2.852642e-06	1.395132e-06	1.268926e-05
1.220095	7.079505e-06	2.966865e-06	1.393580e-06	1.269366e-05
1.221095	7.242924e-06	3.099505e-06	1.392539e-06	1.269210e-05
1.222096	7.412906e-06	3.251200e-06	1.392030e-06	1.268431e-05
1.223096	7.589446e-06	3.422592e-06	1.392075e-06	1.267003e-05
1.224097	7.772536e-06	3.614320e-06	1.392695e-06	1.264900e-05
1.225097	7.962161e-06	3.826991e-06	1.393910e-06	1.262097e-05
1.226098	8.158072e-06	4.060499e-06	1.395720e-06	1.258596e-05
1.227098	8.359798e-06	4.314044e-06	1.398106e-06	1.254426e-05
1.228099	8.566858e-06	4.586797e-06	1.401048e-06	1.249615e-05
1.229099	8.778771e-06	4.877931e-06	1.404526e-06	1.244193e-05
1.230100	8.995057e-06	5.186619e-06	1.408521e-06	1.238189e-05
1.231100	9.215235e-06	5.512031e-06	1.413011e-06	1.231633e-05
1.232101	9.438824e-06	5.853340e-06	1.417978e-06	1.224553e-05
1.233101	9.665344e-06	6.209718e-06	1.423401e-06	1.216978e-05
1.234102	9.894313e-06	6.580337e-06	1.429260e-06	1.208939e-05
1.235102	1.012525e-05	6.964369e-06	1.435535e-06	1.200465e-05
1.236103	1.035768e-05	7.360986e-06	1.442206e-06	1.191583e-05
1.237103	1.059111e-05	7.769360e-06	1.449253e-06	1.182325e-05
1.238104	1.082507e-05	8.188663e-06	1.456657e-06	1.172719e-05
1.239105	1.105908e-05	8.618068e-06	1.464397e-06	1.162794e-05
1.240105	1.129265e-05	9.056745e-06	1.472452e-06	1.152580e-05
1.241106	1.152530e-05	9.503868e-06	1.480805e-06	1.142105e-05
1.242106	1.175656e-05	9.958608e-06	1.489433e-06	1.131400e-05
1.243107	1.198594e-05	1.042014e-05	1.498317e-06	1.120493e-05
1.244107	1.221297e-05	1.088763e-05	1.507438e-06	1.109413e-05
1.245108	1.243715e-05	1.136025e-05	1.516775e-06	1.098191e-05
1.246108	1.265802e-05	1.183718e-05	1.526308e-06	1.086854e-05
1.247109	1.287508e-05	1.231759e-05	1.536018e-06	1.075433e-05
1.248109	1.308787e-05	1.280064e-05	1.545883e-06	1.063956e-05
1.249110	1.329589e-05	1.328552e-05	1.555885e-06	1.052454e-05
1.250110	1.349867e-05	1.377139e-05	1.566003e-06	1.040954e-05
1.251111	1.369572e-05	1.425742e-05	1.576218e-06	1.029487e-05
1.252111	1.388658e-05	1.474280e-05	1.586508e-06	1.018081e-05
1.253112	1.407074e-05	1.522668e-05	1.596855e-06	1.006766e-05
1.254112	1.424774e-05	1.570824e-05	1.607239e-06	9.955709e-06
1.255113	1.441710e-05	1.618666e-05	1.617638e-06	9.845254e-06
1.256113	1.457833e-05	1.666111e-05	1.628034e-06	9.736585e-06
1.257114	1.473095e-05	1.713075e-05	1.638406e-06	9.629994e-06
1.258114	1.487448e-05	1.759476e-05	1.648735e-06	9.525773e-06
1.259115	1.500844e-05	1.805231e-05	1.659000e-06	9.424216e-06
1.260116	1.513236e-05	1.850257e-05	1.669181e-06	9.325615e-06
1.261116	1.524574e-05	1.894473e-05	1.679259e-06	9.230263e-06
1.262117	1.534811e-05	1.937793e-05	1.689213e-06	9.138451e-06
1.263117	1.543899e-05	1.980137e-05	1.699023e-06	9.050472e-06
1.264118	1.551789e-05	2.021421e-05	1.708670e-06	8.966619e-06
1.265118	1.558434e-05	2.061563e-05	1.718133e-06	8.887185e-06
1.266119	1.563786e-05	2.100479e-05	1.727392e-06	8.812461e-06
1.267119	1.567796e-05	2.138086e-05	1.736428e-06	8.742741e-06
1.268120	1.570416e-05	2.174303e-05	1.745220e-06	8.678317e-06
1.269120	1.571599e-05	2.209046e-05	1.753749e-06	8.619481e-06
1.270121	1.571296e-05	2.242232e-05	1.761994e-06	8.566525e-06
1.271121	1.569459e-05	2.273779e-05	1.769935e-06	8.519743e-06
1.272122	1.566040e-05	2.303604e-05	1.777553e-06	8.479427e-06
1.273122	1.560991e-05	2.331624e-05	1.784827e-06	8.445869e-06
1.274123	1.554264e-05	2.357756e-05	1.791738e-06	8.419362e-06
1.275123	1.545814e-05	2.381920e-05	1.798266e-06	8.400184e-06
1.276124	1.535650e-05	2.404103e-05	1.804407e-06	8.388339e-06
1.277124	1.523833e-05	2.424346e-05	1.810170e-06	8.383583e-06
1.278125	1.510424e-05	2.442695e-05	1.815564e-06	8.385667e-06
1.279126	1.495484e-05	2.459194e-05	1.820598e-06	8.394337e-06
1.280126	1.479074e-05	2.473888e-05	1.825282e-06	8.409344e-06
1.281127	1.461256e-05	2.486823e-05	1.829626e-06	8.430435e-06
1.282127	1.442090e-05	2.498043e-05	1.833638e-06	8.457359e-06
1.283128	1.421640e-05	2.507593e-05	1.837328e-06	8.489866e-06
1.284128	1.399965e-05	2.515517e-05	1.840706e-06	8.527702e-06
1.285129	1.377127e-05	2.521862e-05	1.843781e-06	8.570619e-06
1.286129	1.353187e-05	2.526672e-05	1.846562e-06	8.618363e-06
1.287130	1.328207e-05	2.529991e-05	1.849059e-06	8.670683e-06
1.288130	1.302249e-05	2.531864e-05	1.851280e-06	8.727329e-06
1.289131	1.275373e-05	2.532337e-05	1.853237e-06	8.788048e-06
1.290131	1.247640e-05	2.531455e-05	1.854936e-06	8.852590e-06
1.291132	1.219113e-05	2.529262e-05	1.856390e-06	8.920704e-06
1.292132	1.189852e-05	2.525802e-05	1.857605e-06	8.992137e-06
1.293133	1.159919e-05	2.521122e-05	1.858593e-06	9.066638e-06
1.294133	1.129375e-05	2.515266e-05	1.859362e-06	9.143957e-06
1.295134	1.098282e-05	2.508279e-05	1.859922e-06	9.223841e-06
1.296134	1.066701e-05	2.500205e-05	1.860282e-06	9.306040e-06
1.297135	1.034692e-05	2.491091e-05	1.860452e-06	9.390301e-06
1.298136	1.002319e-05	2.480979e-05	1.860440e-06	9.476375e-06
1.299136	9.696408e-06	2.469917e-05	1.860257e-06	9.564009e-06
1.300137	9.367201e-06	2.457947e-05	1.859911e-06	9.652952e-06
1.301137	9.036180e-06	2.445116e-05	1.859413e-06	9.742952e-06
1.302138	8.703958e-06	2.431468e-05	1.858771e-06	9.833759e-06
1.303138	8.371148e-06	2.417048e-05	1.857995e-06	9.925121e-06
1.304139	8.038363e-06	2.401901e-05	1.857094e-06	1.001679e-05
1.305139	7.706218e-06	2.386072e-05	1.856078e-06	1.010850e-05
1.306140	7.375325e-06	2.369605e-05	1.854956e-06	1.020002e-05
1.307140	7.046298e-06	2.352547e-05	1.853737e-06	1.029109e-05
1.308141	6.719751e-06	2.334941e-05	1.852431e-06	1.038146e-05
1.309141	6.396296e-06	2.316832e-05	1.851048e-06	1.047087e-05
1.310142	6.076548e-06	2.298266e-05	1.849596e-06	1.055908e-05
1.311142	5.761119e-06	2.279287e-05	1.848085e-06	1.064583e-05
1.312143	5.450623e-06	2.259940e-05	1.846524e-06	1.073088e-05
1.313143	5.145674e-06	2.240270e-05	1.844923e-06	1.081397e-05
1.314144	4.846884e-06	2.220322e-05	1.843291e-06	1.089484e-05
1.315144	4.554868e-06	2.200141e-05	1.841638e-06	1.097326e-05
1.316145	4.270238e-06	2.179772e-05	1.839973e-06	1.104897e-05
1.317145	3.993609e-06	2.159260e-05	1.838305e-06	1.112171e-05
1.318146	3.725593e-06	2.138649e-05	1.836643e-06	1.119123e-05
1.319147	3.466804e-06	2.117984e-05	1.834998e-06	1.125729e-05
1.320147	3.217855e-06	2.097311e-05	1.833378e-06	1.131963e-05
1.321148	2.979360e-06	2.076675e-05	1.831793e-06	1.137800e-05
1.322148	2.751932e-06	2.056119e-05	1.830253e-06	1.143215e-05
1.323149	2.536185e-06	2.035690e-05	1.828766e-06	1.148183e-05
1.324149	2.332732e-06	2.015431e-05	1.827342e-06	1.152678e-05
1.325150	2.142156e-06	1.995387e-05	1.825990e-06	1.156678e-05
1.326150	1.964542e-06	1.975584e-05	1.824712e-06	1.160177e-05
1.327151	1.799556e-06	1.956030e-05	1.823503e-06	1.163191e-05
1.328151	1.646855e-06	1.936735e-05	1.822359e-06	1.165733e-05
1.329152	1.506094e-06	1.917709e-05	1.821275e-06	1.167818e-05
1.330152	1.376927e-06	1.898961e-05	1.820247e-06	1.169460e-05
1.331153	1.259009e-06	1.880499e-05	1.819271e-06	1.170672e-05
1.332153	1.151997e-06	1.862335e-05	1.818341e-06	1.171470e-05
1.333154	1.055545e-06	1.844476e-05	1.817453e-06	1.171868e-05
1.334154	9.693082e-07	1.826932e-05	1.816603e-06	1.171880e-05
1.335155	8.929419e-07	1.809713e-05	1.815786e-06	1.171519e-05
1.336155	8.261014e-07	1.792828e-05	1.814997e-06	1.170801e-05
1.337156	7.684418e-07	1.776286e-05	1.814233e-06	1.169740e-05
1.338157	7.196183e-07	1.760097e-05	1.813488e-06	1.168349e-05
1.339157	6.792860e-07	1.744269e-05	1.812759e-06	1.166643e-05
1.340158	6.471001e-07	1.728813e-05	1.812039e-06	1.164637e-05
1.341158	6.227159e-07	1.713737e-05	1.811326e-06	1.162344e-05
1.342159	6.057885e-07	1.699051e-05	1.810615e-06	1.159779e-05
1.343159	5.959731e-07	1.684765e-05	1.809900e-06	1.156956e-05
1.344160	5.929249e-07	1.670887e-05	1.809177e-06	1.153890e-05
1.345160	5.962991e-07	1.657427e-05	1.808443e-06	1.150593e-05
1.346161	6.057507e-07	1.644394e-05	1.807692e-06	1.147082e-05
1.347161	6.209352e-07	1.631798e-05	1.806920e-06	1.143370e-05
1.348162	6.415075e-07	1.619647e-05	1.806122e-06	1.139471e-05
1.349162	6.671229e-07	1.607952e-05	1.805293e-06	1.135399e-05
1.350163	6.974366e-07	1.596722e-05	1.804431e-06	1.131169e-05
1.351163	7.321038e-07	1.585966e-05	1.803528e-06	1.126796e-05
1.352164	7.707796e-07	1.575693e-05	1.802582e-06	1.122292e-05
1.353164	8.131193e-07	1.565912e-05	1.801588e-06	1.117673e-05
1.354165	8.587780e-07	1.556634e-05	1.800541e-06	1.112953e-05
1.355165	9.074108e-07	1.547867e-05	1.799436e-06	1.108146e-05
1.356166	9.586731e-07	1.539620e-05	1.798270e-06	1.103266e-05
1.357166	1.012220e-06	1.531904e-05	1.797037e-06	1.098327e-05
1.358167	1.067706e-06	1.524726e-05	1.795733e-06	1.093344e-05
1.359168	1.124788e-06	1.518098e-05	1.794354e-06	1.088331e-05
1.360168	1.183120e-06	1.512027e-05	1.792895e-06	1.083303e-05
1.361169	1.242356e-06	1.506524e-05	1.791351e-06	1.078272e-05
1.362169	1.302154e-06	1.501598e-05	1.789718e-06	1.073255e-05
1.363170	1.362167e-06	1.497257e-05	1.787992e-06	1.068264e-05
1.364170	1.422051e-06	1.493512e-05	1.786168e-06	1.063315e-05
1.365171	1.481461e-06	1.490372e-05	1.784240e-06	1.058421e-05
1.366171	1.540052e-06	1.487846e-05	1.782206e-06	1.053597e-05
1.367172	1.597479e-06	1.485943e-05	1.780060e-06	1.048856e-05
1.368172	1.653399e-06	1.484673e-05	1.777798e-06	1.044214e-05
1.369173	1.707465e-06	1.484045e-05	1.775415e-06	1.039684e-05
1.370173	1.759332e-06	1.484068e-05	1.772907e-06	1.035281e-05
1.371174	1.808657e-06	1.484752e-05	1.770269e-06	1.031019e-05
1.372174	1.855095e-06	1.486106e-05	1.767497e-06	1.026912e-05
1.373175	1.898299e-06	1.488140e-05	1.764586e-06	1.022974e-05
1.374175	1.937927e-06	1.490862e-05	1.761532e-06	1.019220e-05
1.375176	1.973650e-06	1.494281e-05	1.758330e-06	1.015663e-05
1.376176	2.005406e-06	1.498385e-05	1.754984e-06	1.012301e-05
1.377177	2.033335e-06	1.503145e-05	1.751501e-06	1.009119e-05
1.378178	2.057584e-06	1.508534e-05	1.747892e-06	1.006103e-05
1.379178	2.078300e-06	1.514524e-05	1.744164e-06	1.003240e-05
1.380179	2.095627e-06	1.521087e-05	1.740325e-06	1.000513e-05
1.381179	2.109712e-06	1.528194e-05	1.736385e-06	9.979102e-06
1.382180	2.120701e-06	1.535817e-05	1.732353e-06	9.954158e-06
1.383180	2.128740e-06	1.543929e-05	1.728235e-06	9.930158e-06
1.384181	2.133976e-06	1.552500e-05	1.724042e-06	9.906958e-06
1.385181	2.136555e-06	1.561504e-05	1.719782e-06	9.884414e-06
1.386182	2.136622e-06	1.570912e-05	1.715463e-06	9.862383e-06
1.387182	2.134323e-06	1.580696e-05	1.711095e-06	9.840722e-06
1.388183	2.129806e-06	1.590827e-05	1.706684e-06	9.819285e-06
1.389183	2.123215e-06	1.601278e-05	1.702241e-06	9.797930e-06
1.390184	2.114697e-06	1.612021e-05	1.697774e-06	9.776514e-06
1.391184	2.104399e-06	1.623027e-05	1.693292e-06	9.754891e-06
1.392185	2.092465e-06	1.634268e-05	1.688802e-06	9.732919e-06
1.393185	2.079043e-06	1.645717e-05	1.684314e-06	9.710454e-06
1.394186	2.064278e-06	1.657345e-05	1.679836e-06	9.687352e-06
1.395186	2.048317e-06	1.669124e-05	1.675377e-06	9.663470e-06
1.396187	2.031306e-06	1.681026e-05	1.670945e-06	9.638663e-06
1.397188	2.013390e-06	1.693022e-05	1.666549e-06	9.612789e-06
1.398188	1.994716e-06	1.705086e-05	1.662198e-06	9.585703e-06
1.399189	1.975430e-06	1.717188e-05	1.657900e-06	9.557262e-06
1.400189	1.955678e-06	1.729301e-05	1.653664e-06	9.527321e-06
1.401190	1.935606e-06	1.741396e-05	1.649498e-06	9.495739e-06
1.402190	1.915360e-06	1.753445e-05	1.645411e-06	9.462369e-06
1.403191	1.895086e-06	1.765421e-05	1.641411e-06	9.427070e-06
1.404191	1.874932e-06	1.777294e-05	1.637508e-06	9.389697e-06
1.405192	1.855041e-06	1.789038e-05	1.633710e-06	9.350106e-06
1.406192	1.835561e-06	1.800624e-05	1.630025e-06	9.308155e-06
1.407193	1.816638e-06	1.812024e-05	1.626461e-06	9.263698e-06
1.408193	1.798418e-06	1.823209e-05	1.623029e-06	9.216593e-06
1.409194	1.781047e-06	1.834152e-05	1.619735e-06	9.166696e-06
1.410194	1.764671e-06	1.844824e-05	1.616590e-06	9.113863e-06
1.411195	1.749436e-06	1.855198e-05	1.613600e-06	9.057950e-06
1.412195	1.735488e-06	1.865246e-05	1.610776e-06	8.998814e-06
1.413196	1.722974e-06	1.874938e-05	1.608125e-06	8.936311e-06
1.414196	1.712039e-06	1.884248e-05	1.605656e-06	8.870298e-06
1.415197	1.702830e-06	1.893146e-05	1.603377e-06	8.800630e-06
1.416197	1.695493e-06	1.901606e-05	1.601298e-06	8.727164e-06
1.417198	1.690173e-06	1.909598e-05	1.599428e-06	8.649756e-06
1.418199	1.687017e-06	1.917095e-05	1.597773e-06	8.568263e-06
1.419199	1.686171e-06	1.924069e-05	1.596344e-06	8.482540e-06
1.420200	1.687781e-06	1.930491e-05	1.595148e-06	8.392445e-06
1.421200	1.691994e-06	1.936334e-05	1.594194e-06	8.297833e-06
1.422201	1.698954e-06	1.941569e-05	1.593492e-06	8.198561e-06
1.423201	1.708810e-06	1.946168e-05	1.593049e-06	8.094485e-06
1.424202	1.721705e-06	1.950103e-05	1.592874e-06	7.985461e-06
1.425202	1.737776e-06	1.953348e-05	1.592974e-06	7.871369e-06
1.426203	1.756998e-06	1.955894e-05	1.593343e-06	7.752390e-06
1.427203	1.779237e-06	1.957748e-05	1.593963e-06	7.628922e-06
1.428204	1.804355e-06	1.958914e-05	1.594814e-06	7.501368e-06
1.429204	1.832215e-06	1.959399e-05	1.595880e-06	7.370131e-06
1.430205	1.862678e-06	1.959210e-05	1.597142e-06	7.235614e-06
1.431205	1.895608e-06	1.958351e-05	1.598583e-06	7.098219e-06
1.432206	1.930866e-06	1.956828e-05	1.600183e-06	6.958349e-06
1.433206	1.968314e-06	1.954648e-05	1.601925e-06	6.816406e-06
1.434207	2.007816e-06	1.951817e-05	1.603792e-06	6.672795e-06
1.435207	2.049234e-06	1.948340e-05	1.605764e-06	6.527916e-06
1.436208	2.092430e-06	1.944223e-05	1.607824e-06	6.382173e-06
1.437209	2.137266e-06	1.939472e-05	1.609954e-06	6.235969e-06
1.438209	2.183604e-06	1.934093e-05	1.612136e-06	6.089707e-06
1.439210	2.231308e-06	1.928092e-05	1.614351e-06	5.943788e-06
1.440210	2.280239e-06	1.921474e-05	1.616582e-06	5.798617e-06
1.441211	2.330260e-06	1.914246e-05	1.618810e-06	5.654595e-06
1.442211	2.381234e-06	1.906414e-05	1.621018e-06	5.512126e-06
1.443212	2.433021e-06	1.897983e-05	1.623187e-06	5.371612e-06
1.444212	2.485486e-06	1.888959e-05	1.625299e-06	5.233455e-06
1.445213	2.538490e-06	1.879349e-05	1.627336e-06	5.098059e-06
1.446213	2.591895e-06	1.869158e-05	1.629281e-06	4.965827e-06
1.447214	2.645565e-06	1.858391e-05	1.631115e-06	4.837161e-06
1.448214	2.699360e-06	1.847056e-05	1.632819e-06	4.712463e-06
1.449215	2.753145e-06	1.835157e-05	1.634377e-06	4.592137e-06
1.450215	2.806781e-06	1.822700e-05	1.635770e-06	4.476586e-06
1.451216	2.860130e-06	1.809693e-05	1.636979e-06	4.366211e-06
1.452216	2.913055e-06	1.796139e-05	1.637987e-06	4.261416e-06
1.453217	2.965418e-06	1.782046e-05	1.638776e-06	4.162604e-06
1.454217	3.017081e-06	1.767420e-05	1.639327e-06	4.070177e-06
1.455218	3.067908e-06	1.752265e-05	1.639623e-06	3.984538e-06
1.456218	3.117760e-06	1.736588e-05	1.639646e-06	3.906090e-06
1.457219	3.166499e-06	1.720395e-05	1.639376e-06	3.835235e-06
1.458220	3.213989e-06	1.703692e-05	1.638798e-06	3.772376e-06
1.459220	3.260091e-06	1.686484e-05	1.637891e-06	3.717917e-06
1.460221	3.304667e-06	1.668778e-05	1.636639e-06	3.672259e-06
1.461221	3.347581e-06	1.650579e-05	1.635022e-06	3.635805e-06
1.462222	3.388694e-06	1.631894e-05	1.633024e-06	3.608959e-06
1.463222	3.427870e-06	1.612728e-05	1.630626e-06	3.592123e-06
1.464223	3.464969e-06	1.593087e-05	1.627810e-06	3.585699e-06
1.465223	3.499855e-06	1.572977e-05	1.624557e-06	3.590091e-06
1.466224	3.532390e-06	1.552403e-05	1.620851e-06	3.605700e-06
1.467224	3.562436e-06	1.531373e-05	1.616672e-06	3.632931e-06
1.468225	3.589856e-06	1.509891e-05	1.612002e-06	3.672185e-06
1.469225	3.614512e-06	1.487963e-05	1.606825e-06	3.723866e-06
1.470226	3.636266e-06	1.465596e-05	1.601121e-06	3.788376e-06
1.471226	3.654981e-06	1.442796e-05	1.594872e-06	3.866117e-06
1.472227	3.670519e-06	1.419567e-05	1.588061e-06	3.957493e-06
1.473227	3.682743e-06	1.395917e-05	1.580669e-06	4.062906e-06
1.474228	3.691515e-06	1.371850e-05	1.572678e-06	4.182760e-06
1.475228	3.696709e-06	1.347375e-05	1.564074e-06	4.317404e-06
1.476229	3.698358e-06	1.322516e-05	1.554882e-06	4.466569e-06
1.477230	3.696596e-06	1.297307e-05	1.545156e-06	4.629573e-06
1.478230	3.691557e-06	1.271785e-05	1.534947e-06	4.805726e-06
1.479231	3.683378e-06	1.245986e-05	1.524311e-06	4.994341e-06
1.480231	3.672194e-06	1.219945e-05	1.513299e-06	5.194727e-06
1.481232	3.658141e-06	1.193698e-05	1.501965e-06	5.406197e-06
1.482232	3.641356e-06	1.167281e-05	1.490362e-06	5.628060e-06
1.483233	3.621973e-06	1.140729e-05	1.478543e-06	5.859629e-06
1.484233	3.600129e-06	1.114079e-05	1.466562e-06	6.100214e-06
1.485234	3.575960e-06	1.087365e-05	1.454472e-06	6.349127e-06
1.486234	3.549600e-06	1.060624e-05	1.442325e-06	6.605678e-06
1.487235	3.521187e-06	1.033892e-05	1.430176e-06	6.869178e-06
1.488235	3.490855e-06	1.007203e-05	1.418076e-06	7.138939e-06
1.489236	3.458740e-06	9.805942e-06	1.406080e-06	7.414272e-06
1.490236	3.424979e-06	9.541010e-06	1.394241e-06	7.694487e-06
1.491237	3.389707e-06	9.277590e-06	1.382611e-06	7.978896e-06
1.492237	3.353060e-06	9.016040e-06	1.371245e-06	8.266810e-06
1.493238	3.315173e-06	8.756718e-06	1.360195e-06	8.557539e-06
1.494238	3.276183e-06	8.499980e-06	1.349514e-06	8.850396e-06
1.495239	3.236224e-06	8.246183e-06	1.339255e-06	9.144691e-06
1.496239	3.195434e-06	7.995686e-06	1.329473e-06	9.439734e-06
1.497240	3.153947e-06	7.748845e-06	1.320219e-06	9.734838e-06
1.498241	3.111900e-06	7.506018e-06	1.311547e-06	1.002931e-05
1.499241	3.069428e-06	7.267561e-06	1.303511e-06	1.032247e-05
1.500242	3.026668e-06	7.033832e-06	1.296163e-06	1.061362e-05
1.501242	2.983754e-06	6.805189e-06	1.289557e-06	1.090208e-05
1.502243	2.940822e-06	6.581988e-06	1.283746e-06	1.118715e-05
1.503243	2.898009e-06	6.364587e-06	1.278783e-06	1.146815e-05
1.504244	2.855450e-06	6.153343e-06	1.274721e-06	1.174438e-05
1.505244	2.813281e-06	5.948614e-06	1.271614e-06	1.201516e-05
1.506245	2.771637e-06	5.750756e-06	1.269514e-06	1.227981e-05
1.507245	2.730656e-06	5.560127e-06	1.268475e-06	1.253762e-05
1.508246	2.690471e-06	5.377085e-06	1.268550e-06	1.278792e-05
1.509246	2.651219e-06	5.201986e-06	1.269792e-06	1.303001e-05
1.510247	2.613036e-06	5.035187e-06	1.272255e-06	1.326320e-05
1.511247	2.576058e-06	4.877047e-06	1.275991e-06	1.348681e-05
1.512248	2.540420e-06	4.727922e-06	1.281054e-06	1.370014e-05
1.513248	2.506258e-06	4.588169e-06	1.287497e-06	1.390251e-05
1.514249	2.473708e-06	4.458147e-06	1.295373e-06	1.409323e-05
1.515249	2.442906e-06	4.338211e-06	1.304736e-06	1.427161e-05
1.516250	2.413987e-06	4.228719e-06	1.315638e-06	1.443696e-05
1.517251	2.387088e-06	4.130030e-06	1.328132e-06	1.458859e-05
1.518251	2.362343e-06	4.042499e-06	1.342273e-06	1.472582e-05
1.519252	2.339890e-06	3.966484e-06	1.358113e-06	1.484795e-05
1.520252	2.319863e-06	3.902343e-06	1.375705e-06	1.495429e-05
1.521253	2.302398e-06	3.850432e-06	1.395102e-06	1.504416e-05
1.522253	2.287631e-06	3.811109e-06	1.416358e-06	1.511686e-05
1.523254	2.275698e-06	3.784732e-06	1.439526e-06	1.517171e-05
1.524254	2.266735e-06	3.771657e-06	1.464659e-06	1.520803e-05
1.525255	2.260865e-06	3.772208e-06	1.491803e-06	1.522518e-05
1.526255	2.258074e-06	3.786339e-06	1.520919e-06	1.522329e-05
1.527256	2.258264e-06	3.813782e-06	1.551922e-06	1.520295e-05
1.528256	2.261336e-06	3.854263e-06	1.584720e-06	1.516474e-05
1.529257	2.267191e-06	3.907508e-06	1.619227e-06	1.510926e-05
1.530257	2.275731e-06	3.973245e-06	1.655352e-06	1.503708e-05
1.531258	2.286857e-06	4.051199e-06	1.693007e-06	1.494880e-05
1.532258	2.300468e-06	4.141098e-06	1.732104e-06	1.484500e-05
1.533259	2.316468e-06	4.242668e-06	1.772554e-06	1.472628e-05
1.534259	2.334755e-06	4.355636e-06	1.814268e-06	1.459322e-05
1.535260	2.355233e-06	4.479728e-06	1.857157e-06	1.444641e-05
1.536261	2.377801e-06	4.614672e-06	1.901132e-06	1.428643e-05
1.537261	2.402361e-06	4.760194e-06	1.946105e-06	1.411388e-05
1.538262	2.428813e-06	4.916020e-06	1.991986e-06	1.392934e-05
1.539262	2.457060e-06	5.081878e-06	2.038688e-06	1.373341e-05
1.540263	2.487001e-06	5.257494e-06	2.086121e-06	1.352666e-05
1.541263	2.518538e-06	5.442595e-06	2.134197e-06	1.330968e-05
1.542264	2.551571e-06	5.636907e-06	2.182826e-06	1.308308e-05
1.543264	2.586003e-06	5.840157e-06	2.231921e-06	1.284742e-05
1.544265	2.621734e-06	6.052072e-06	2.281392e-06	1.260331e-05
1.545265	2.658665e-06	6.272379e-06	2.331150e-06	1.235132e-05
1.546266	2.696697e-06	6.500804e-06	2.381108e-06	1.209205e-05
1.547266	2.735731e-06	6.737074e-06	2.431175e-06	1.182609e-05
1.548267	2.775668e-06	6.980915e-06	2.481263e-06	1.155402e-05
1.549267	2.816410e-06	7.232054e-06	2.531284e-06	1.127643e-05
1.550268	2.857857e-06	7.490219e-06	2.581149e-06	1.099390e-05
1.551268	2.899910e-06	7.755135e-06	2.630768e-06	1.070704e-05
1.552269	2.942470e-06	8.026530e-06	2.680054e-06	1.041641e-05
1.553269	2.985439e-06	8.304129e-06	2.728917e-06	1.012262e-05
1.554270	3.028717e-06	8.587660e-06	2.777269e-06	9.826253e-06
1.555270	3.072206e-06	8.876850e-06	2.825021e-06	9.527891e-06
1.556271	3.115806e-06	9.171425e-06	2.872084e-06	9.228125e-06
1.557272	3.159419e-06	9.471112e-06	2.918370e-06	8.927544e-06
1.558272	3.202946e-06	9.775637e-06	2.963789e-06	8.626735e-06
1.559273	3.246287e-06	1.008473e-05	3.008252e-06	8.326286e-06
1.560273	3.289344e-06	1.039811e-05	3.051672e-06	8.026785e-06
1.561274	3.332018e-06	1.071551e-05	3.093959e-06	7.728820e-06
1.562274	3.374209e-06	1.103666e-05	3.135025e-06	7.432979e-06
1.563275	3.415820e-06	1.136127e-05	3.174781e-06	7.139850e-06
1.564275	3.456750e-06	1.168909e-05	3.213138e-06	6.850021e-06
1.565276	3.496901e-06	1.201983e-05	3.250006e-06	6.564080e-06
1.566276	3.536175e-06	1.235323e-05	3.285299e-06	6.282615e-06
1.567277	3.574471e-06	1.268900e-05	3.318926e-06	6.006213e-06
1.568277	3.611691e-06	1.302688e-05	3.350799e-06	5.735464e-06
1.569278	3.647737e-06	1.336659e-05	3.380830e-06	5.470954e-06
1.570278	3.682508e-06	1.370786e-05	3.408929e-06	5.213272e-06
1.571279	3.715907e-06	1.405041e-05	3.435007e-06	4.963006e-06
1.572279	3.747834e-06	1.439398e-05	3.458977e-06	4.720744e-06
1.573280	3.778191e-06	1.473828e-05	3.480748e-06	4.487073e-06
1.574280	3.806878e-06	1.508305e-05	3.500234e-06	4.262582e-06
1.575281	3.833803e-06	1.542802e-05	3.517355e-06	4.047811e-06
1.576282	3.858944e-06	1.577294e-05	3.532151e-06	3.842835e-06
1.577282	3.882318e-06	1.611760e-05	3.544724e-06	3.647468e-06
1.578283	3.903941e-06	1.646176e-05	3.555178e-06	3.461516e-06
1.579283	3.923832e-06	1.680522e-05	3.563618e-06	3.284789e-06
1.580284	3.942007e-06	1.714774e-05	3.570147e-06	3.117096e-06
1.581284	3.958483e-06	1.748910e-05	3.574868e-06	2.958244e-06
1.582285	3.973277e-06	1.782909e-05	3.577887e-06	2.808044e-06
1.583285	3.986408e-06	1.816747e-05	3.579306e-06	2.666302e-06
1.584286	3.997891e-06	1.850404e-05	3.579229e-06	2.532829e-06
1.585286	4.007744e-06	1.883856e-05	3.577761e-06	2.407433e-06
1.586287	4.015985e-06	1.917081e-05	3.575006e-06	2.289922e-06
1.587287	4.022630e-06	1.950057e-05	3.571066e-06	2.180105e-06
1.588288	4.027697e-06	1.982762e-05	3.566047e-06	2.077791e-06
1.589288	4.031203e-06	2.015174e-05	3.560052e-06	1.982788e-06
1.590289	4.033164e-06	2.047270e-05	3.553184e-06	1.894905e-06
1.591289	4.033599e-06	2.079028e-05	3.545548e-06	1.813951e-06
1.592290	4.032525e-06	2.110426e-05	3.537248e-06	1.739734e-06
1.593290	4.029958e-06	2.141442e-05	3.528387e-06	1.672064e-06
1.594291	4.025915e-06	2.172053e-05	3.519070e-06	1.610748e-06
1.595291	4.020415e-06	2.202238e-05	3.509400e-06	1.555596e-06
1.596292	4.013474e-06	2.231973e-05	3.499480e-06	1.506415e-06
1.597293	4.005109e-06	2.261238e-05	3.489416e-06	1.463015e-06
1.598293	3.995338e-06	2.290009e-05	3.479311e-06	1.425205e-06
1.599294	3.984177e-06	2.318264e-05	3.469269e-06	1.392792e-06
1.600294	3.971645e-06	2.345982e-05	3.459393e-06	1.365587e-06
1.601295	3.957757e-06	2.373139e-05	3.449787e-06	1.343396e-06
1.602295	3.942532e-06	2.399714e-05	3.440556e-06	1.326030e-06
1.603296	3.925986e-06	2.425685e-05	3.431804e-06	1.313297e-06
1.604296	3.908137e-06	2.451028e-05	3.423633e-06	1.305004e-06
1.605297	3.889002e-06	2.475723e-05	3.416149e-06	1.300962e-06
1.606297	3.868598e-06	2.499746e-05	3.409454e-06	1.300978e-06
1.607298	3.846942e-06	2.523076e-05	3.403653e-06	1.304862e-06
1.608298	3.824051e-06	2.545691e-05	3.398850e-06	1.312422e-06
1.609299	3.799943e-06	2.567567e-05	3.395148e-06	1.323466e-06
1.610299	3.774635e-06	2.588684e-05	3.392652e-06	1.337804e-06
1.611300	3.748144e-06	2.609017e-05	3.391465e-06	1.355243e-06
1.612300	3.720487e-06	2.628547e-05	3.391691e-06	1.375594e-06
1.613301	3.691681e-06	2.647249e-05	3.393434e-06	1.398663e-06
1.614301	3.661744e-06	2.665103e-05	3.396799e-06	1.424261e-06
1.615302	3.630693e-06	2.682085e-05	3.401888e-06	1.452195e-06
1.616303	3.598544e-06	2.698174e-05	3.408805e-06	1.482275e-06
1.617303	3.565316e-06	2.713347e-05	3.417656e-06	1.514308e-06
1.618304	3.531024e-06	2.727582e-05	3.428542e-06	1.548104e-06
1.619304	3.495688e-06	2.740857e-05	3.441569e-06	1.583472e-06
1.620305	3.459323e-06	2.753150e-05	3.456841e-06	1.620219e-06
1.621305	3.421946e-06	2.764438e-05	3.474460e-06	1.658155e-06
1.622306	3.383576e-06	2.774699e-05	3.494531e-06	1.697089e-06
1.623306	3.344229e-06	2.783911e-05	3.517159e-06	1.736828e-06
1.624307	3.303923e-06	2.792052e-05	3.542445e-06	1.777182e-06
1.625307	3.262678e-06	2.799101e-05	3.570483e-06	1.817969e-06
1.626308	3.220553e-06	2.805059e-05	3.601240e-06	1.859100e-06
1.627308	3.177626e-06	2.809934e-05	3.634627e-06	1.900535e-06
1.628309	3.133976e-06	2.813735e-05	3.670548e-06	1.942231e-06
1.629309	3.089679e-06	2.816474e-05	3.708912e-06	1.984148e-06
1.630310	3.044815e-06	2.818158e-05	3.749626e-06	2.026245e-06
1.631310	2.999460e-06	2.818798e-05	3.792597e-06	2.068481e-06
1.632311	2.953694e-06	2.818404e-05	3.837732e-06	2.110815e-06
1.633311	2.907595e-06	2.816984e-05	3.884937e-06	2.153207e-06
1.634312	2.861239e-06	2.814548e-05	3.934120e-06	2.195615e-06
1.635312	2.814706e-06	2.811106e-05	3.985189e-06	2.237998e-06
1.636313	2.768073e-06	2.806668e-05	4.038050e-06	2.280316e-06
1.637314	2.721419e-06	2.801242e-05	4.092610e-06	2.322528e-06
1.638314	2.674821e-06	2.794839e-05	4.148776e-06	2.364592e-06
1.639315	2.628358e-06	2.787468e-05	4.206456e-06	2.406469e-06
1.640315	2.582107e-06	2.779139e-05	4.265556e-06	2.448116e-06
1.641316	2.536147e-06	2.769861e-05	4.325984e-06	2.489493e-06
1.642316	2.490555e-06	2.759644e-05	4.387646e-06	2.530559e-06
1.643317	2.445410e-06	2.748497e-05	4.450451e-06	2.571274e-06
1.644317	2.400790e-06	2.736429e-05	4.514304e-06	2.611595e-06
1.645318	2.356772e-06	2.723452e-05	4.579113e-06	2.651483e-06
1.646318	2.313435e-06	2.709573e-05	4.644786e-06	2.690897e-06
1.647319	2.270857e-06	2.694802e-05	4.711228e-06	2.729795e-06
1.648319	2.229116e-06	2.679150e-05	4.778348e-06	2.768137e-06
1.649320	2.188290e-06	2.662626e-05	4.846052e-06	2.805881e-06
1.650320	2.148457e-06	2.645238e-05	4.914247e-06	2.842987e-06
1.651321	2.109695e-06	2.626997e-05	4.982841e-06	2.879415e-06
1.652321	2.072081e-06	2.607913e-05	5.051740e-06	2.915122e-06
1.653322	2.035695e-06	2.587994e-05	5.120852e-06	2.950068e-06
1.654322	2.000614e-06	2.567251e-05	5.190084e-06	2.984212e-06
1.655323	1.966916e-06	2.545692e-05	5.259343e-06	3.017514e-06
1.656324	1.934680e-06	2.523329e-05	5.328535e-06	3.049932e-06
1.657324	1.903982e-06	2.500169e-05	5.397569e-06	3.081426e-06
1.658325	1.874902e-06	2.476223e-05	5.466350e-06	3.111954e-06
1.659325	1.847517e-06	2.451500e-05	5.534787e-06	3.141475e-06
1.660326	1.821905e-06	2.426009e-05	5.602786e-06	3.169949e-06
1.661326	1.798145e-06	2.399761e-05	5.670255e-06	3.197336e-06
1.662327	1.776315e-06	2.372765e-05	5.737099e-06	3.223593e-06
1.663327	1.756491e-06	2.345030e-05	5.803228e-06	3.248680e-06
1.664328	1.738753e-06	2.316566e-05	5.868547e-06	3.272556e-06
1.665328	1.723179e-06	2.287383e-05	5.932964e-06	3.295180e-06
1.666329	1.709847e-06	2.257489e-05	5.996385e-06	3.316511e-06
1.667329	1.698834e-06	2.226896e-05	6.058718e-06	3.336509e-06
1.668330	1.690218e-06	2.195611e-05	6.119871e-06	3.355132e-06
1.669330	1.684079e-06	2.163645e-05	6.179749e-06	3.372340e-06
1.670331	1.680493e-06	2.131007e-05	6.238261e-06	3.388091e-06
1.671331	1.679539e-06	2.097707e-05	6.295312e-06	3.402345e-06
1.672332	1.681294e-06	2.063755e-05	6.350811e-06	3.415061e-06
1.673332	1.685838e-06	2.029159e-05	6.404665e-06	3.426198e-06
1.674333	1.693248e-06	1.993930e-05	6.456779e-06	3.435715e-06
1.675334	1.703587e-06	1.958080e-05	6.507073e-06	3.443577e-06
1.676334	1.716802e-06	1.921651e-05	6.555546e-06	3.449801e-06
1.677335	1.732785e-06	1.884697e-05	6.602238e-06	3.454428e-06
1.678335	1.751424e-06	1.847273e-05	6.647190e-06	3.457500e-06
1.679336	1.772610e-06	1.809434e-05	6.690443e-06	3.459058e-06
1.680336	1.796232e-06	1.771234e-05	6.732037e-06	3.459145e-06
1.681337	1.822181e-06	1.732728e-05	6.772014e-06	3.457801e-06
1.682337	1.850345e-06	1.693971e-05	6.810413e-06	3.455068e-06
1.683338	1.880616e-06	1.655018e-05	6.847276e-06	3.450988e-06
1.684338	1.912883e-06	1.615923e-05	6.882644e-06	3.445602e-06
1.685339	1.947036e-06	1.576742e-05	6.916556e-06	3.438953e-06
1.686339	1.982964e-06	1.537528e-05	6.949055e-06	3.431080e-06
1.687340	2.020558e-06	1.498337e-05	6.980180e-06	3.422027e-06
1.688340	2.059707e-06	1.459224e-05	7.009972e-06	3.411834e-06
1.689341	2.100302e-06	1.420243e-05	7.038472e-06	3.400543e-06
1.690341	2.142232e-06	1.381448e-05	7.065721e-06	3.388196e-06
1.691342	2.185387e-06	1.342896e-05	7.091759e-06	3.374834e-06
1.692342	2.229657e-06	1.304639e-05	7.116627e-06	3.360499e-06
1.693343	2.274932e-06	1.266734e-05	7.140366e-06	3.345232e-06
1.694343	2.321102e-06	1.229235e-05	7.163016e-06	3.329076e-06
1.695344	2.368056e-06	1.192197e-05	7.184619e-06	3.312071e-06
1.696345	2.415685e-06	1.155674e-05	7.205214e-06	3.294259e-06
1.697345	2.463878e-06	1.119721e-05	7.224843e-06	3.275681e-06
1.698346	2.512526e-06	1.084394e-05	7.243547e-06	3.256380e-06
1.699346	2.561518e-06	1.049745e-05	7.261365e-06	3.236397e-06
1.700347	2.610743e-06	1.015832e-05	7.278339e-06	3.215773e-06
1.701347	2.660093e-06	9.827073e-06	7.294510e-06	3.194551e-06
1.702348	2.709456e-06	9.504269e-06	7.309918e-06	3.172770e-06
1.703348	2.758723e-06	9.190451e-06	7.324604e-06	3.150474e-06
1.704349	2.807783e-06	8.886167e-06	7.338608e-06	3.127704e-06
1.705349	2.856527e-06	8.591966e-06	7.351972e-06	3.104500e-06
1.706350	2.904845e-06	8.308394e-06	7.364736e-06	3.080906e-06
1.707350	2.952625e-06	8.036000e-06	7.376940e-06	3.056962e-06
1.708351	2.999758e-06	7.775330e-06	7.388626e-06	3.032709e-06
1.709351	3.046134e-06	7.526932e-06	7.399834e-06	3.008191e-06
1.710352	3.091644e-06	7.291353e-06	7.410605e-06	2.983447e-06
1.711352	3.136175e-06	7.069142e-06	7.420980e-06	2.958520e-06
1.712353	3.179620e-06	6.860846e-06	7.430998e-06	2.933452e-06
1.713353	3.221866e-06	6.667011e-06	7.440702e-06	2.908283e-06
1.714354	3.262805e-06	6.488186e-06	7.450132e-06	2.883055e-06
1.715355	3.302327e-06	6.324919e-06	7.459328e-06	2.857811e-06
1.716355	3.340320e-06	6.177756e-06	7.468331e-06	2.832591e-06
1.717356	3.376675e-06	6.047245e-06	7.477182e-06	2.807437e-06
1.718356	3.411282e-06	5.933934e-06	7.485922e-06	2.782390e-06
1.719357	3.444031e-06	5.838370e-06	7.494591e-06	2.757493e-06
1.720357	3.474811e-06	5.761101e-06	7.503230e-06	2.732787e-06
1.721358	3.503513e-06	5.702674e-06	7.511880e-06	2.708313e-06
1.722358	3.530026e-06	5.663637e-06	7.520581e-06	2.684113e-06
1.723359	3.554241e-06	5.644537e-06	7.529374e-06	2.660228e-06
1.724359	3.576046e-06	5.645921e-06	7.538300e-06	2.636701e-06
1.725360	3.595347e-06	5.668236e-06	7.547396e-06	2.613575e-06
1.726360	3.612157e-06	5.711163e-06	7.556668e-06	2.590919e-06
1.727361	3.626537e-06	5.774043e-06	7.566109e-06	2.568812e-06
1.728361	3.638549e-06	5.856215e-06	7.575714e-06	2.547333e-06
1.729362	3.648256e-06	5.957018e-06	7.585475e-06	2.526560e-06
1.730362	3.655719e-06	6.075791e-06	7.595385e-06	2.506573e-06
1.731363	3.661001e-06	6.211874e-06	7.605438e-06	2.487449e-06
1.732363	3.664162e-06	6.364604e-06	7.615627e-06	2.469269e-06
1.733364	3.665267e-06	6.533321e-06	7.625946e-06	2.452110e-06
1.734364	3.664375e-06	6.717365e-06	7.636388e-06	2.436052e-06
1.735365	3.661550e-06	6.916073e-06	7.646945e-06	2.421173e-06
1.736366	3.656853e-06	7.128785e-06	7.657612e-06	2.407553e-06
1.737366	3.650346e-06	7.354840e-06	7.668381e-06	2.395270e-06
1.738367	3.642092e-06	7.593577e-06	7.679246e-06	2.384403e-06
1.739367	3.632152e-06	7.844334e-06	7.690200e-06	2.375030e-06
1.740368	3.620589e-06	8.106451e-06	7.701237e-06	2.367231e-06
1.741368	3.607463e-06	8.379267e-06	7.712349e-06	2.361085e-06
1.742369	3.592838e-06	8.662121e-06	7.723530e-06	2.356670e-06
1.743369	3.576776e-06	8.954351e-06	7.734774e-06	2.354065e-06
1.744370	3.559337e-06	9.255297e-06	7.746073e-06	2.353349e-06
1.745370	3.540585e-06	9.564298e-06	7.757421e-06	2.354600e-06
1.746371	3.520581e-06	9.880692e-06	7.768811e-06	2.357899e-06
1.747371	3.499388e-06	1.020382e-05	7.780237e-06	2.363322e-06
1.748372	3.477066e-06	1.053302e-05	7.791691e-06	2.370950e-06
1.749372	3.453679e-06	1.086763e-05	7.803168e-06	2.380861e-06
1.750373	3.429289e-06	1.120698e-05	7.814659e-06	2.393134e-06
1.751373	3.403956e-06	1.155043e-05	7.826160e-06	2.407848e-06
1.752374	3.377744e-06	1.189730e-05	7.837662e-06	2.425081e-06
1.753374	3.350714e-06	1.224694e-05	7.849159e-06	2.444913e-06
1.754375	3.322928e-06	1.259869e-05	7.860645e-06	2.467422e-06
1.755376	3.294449e-06	1.295188e-05	7.872113e-06	2.492687e-06
1.756376	3.265338e-06	1.330585e-05	7.883555e-06	2.520787e-06
1.757377	3.235657e-06	1.365995e-05	7.894966e-06	2.551801e-06
1.758377	3.205468e-06	1.401350e-05	7.906339e-06	2.585807e-06
1.759378	3.174834e-06	1.436586e-05	7.917666e-06	2.622885e-06
1.760378	3.143815e-06	1.471636e-05	7.928942e-06	2.663113e-06
1.761379	3.112475e-06	1.506433e-05	7.940159e-06	2.706570e-06
1.762379	3.080876e-06	1.540912e-05	7.951311e-06	2.753335e-06
1.763380	3.049078e-06	1.575007e-05	7.962391e-06	2.803486e-06
1.764380	3.017145e-06	1.608651e-05	7.973392e-06	2.857104e-06
1.765381	2.985138e-06	1.641779e-05	7.984308e-06	2.914265e-06
1.766381	2.953119e-06	1.674323e-05	7.995132e-06	2.975050e-06
1.767382	2.921150e-06	1.706220e-05	8.005857e-06	3.039537e-06
1.768382	2.889294e-06	1.737401e-05	8.016476e-06	3.107805e-06
1.769383	2.857611e-06	1.767801e-05	8.026984e-06	3.179932e-06
1.770383	2.826165e-06	1.797354e-05	8.037372e-06	3.255998e-06
1.771384	2.795017e-06	1.825994e-05	8.047635e-06	3.336082e-06
1.772384	2.764230e-06	1.853654e-05	8.057765e-06	3.420261e-06
1.773385	2.733864e-06	1.880269e-05	8.067757e-06	3.508616e-06
1.774386	2.703983e-06	1.905773e-05	8.077603e-06	3.601225e-06
1.775386	2.674641e-06	1.930107e-05	8.087298e-06	3.698140e-06
1.776387	2.645854e-06	1.953268e-05	8.096850e-06	3.799240e-06
1.777387	2.617619e-06	1.975278e-05	8.106271e-06	3.904330e-06
1.778388	2.589933e-06	1.996155e-05	8.115576e-06	4.013214e-06
1.779388	2.562793e-06	2.015920e-05	8.124776e-06	4.125698e-06
1.780389	2.536196e-06	2.034594e-05	8.133885e-06	4.241585e-06
1.781389	2.510139e-06	2.052196e-05	8.142915e-06	4.360680e-06
1.782390	2.484620e-06	2.068746e-05	8.151880e-06	4.482789e-06
1.783390	2.459635e-06	2.084265e-05	8.160791e-06	4.607716e-06
1.784391	2.435182e-06	2.098773e-05	8.169663e-06	4.735266e-06
1.785391	2.411258e-06	2.112289e-05	8.178507e-06	4.865243e-06
1.786392	2.387860e-06	2.124835e-05	8.187337e-06	4.997452e-06
1.787392	2.364985e-06	2.136429e-05	8.196165e-06	5.131698e-06
1.788393	2.342631e-06	2.147094e-05	8.205006e-06	5.267786e-06
1.789393	2.320794e-06	2.156847e-05	8.213870e-06	5.405521e-06
1.790394	2.299472e-06	2.165710e-05	8.222772e-06	5.544706e-06
1.791394	2.278662e-06	2.173703e-05	8.231724e-06	5.685148e-06
1.792395	2.258361e-06	2.180846e-05	8.240738e-06	5.826650e-06
1.793395	2.238566e-06	2.187159e-05	8.249829e-06	5.969017e-06
1.794396	2.219274e-06	2.192663e-05	8.259008e-06	6.112055e-06
1.795397	2.200483e-06	2.197376e-05	8.268289e-06	6.255567e-06
1.796397	2.182189e-06	2.201321e-05	8.277684e-06	6.399359e-06
1.797398	2.164390e-06	2.204515e-05	8.287207e-06	6.543235e-06
1.798398	2.147083e-06	2.206981e-05	8.296870e-06	6.687001e-06
1.799399	2.130265e-06	2.208738e-05	8.306686e-06	6.830460e-06
1.800399	2.113933e-06	2.209805e-05	8.316667e-06	6.973417e-06
1.801400	2.098085e-06	2.210204e-05	8.326828e-06	7.115678e-06
1.802400	2.082717e-06	2.209954e-05	8.337180e-06	7.257047e-06
1.803401	2.067827e-06	2.209076e-05	8.347737e-06	7.397328e-06
1.804401	2.053411e-06	2.207590e-05	8.358512e-06	7.536327e-06
1.805402	2.039468e-06	2.205515e-05	8.369516e-06	7.673848e-06
1.806402	2.025994e-06	2.202873e-05	8.380764e-06	7.809696e-06
1.807403	2.012986e-06	2.199682e-05	8.392268e-06	7.943675e-06
1.808403	2.000441e-06	2.195964e-05	8.404041e-06	8.075591e-06
1.809404	1.988357e-06	2.191738e-05	8.416096e-06	8.205248e-06
1.810404	1.976731e-06	2.187025e-05	8.428445e-06	8.332451e-06
1.811405	1.965560e-06	2.181844e-05	8.441102e-06	8.457004e-06
1.812405	1.954841e-06	2.176217e-05	8.454079e-06	8.578713e-06
1.813406	1.944570e-06	2.170162e-05	8.467389e-06	8.697381e-06
1.814407	1.934747e-06	2.163701e-05	8.481046e-06	8.812815e-06
1.815407	1.925367e-06	2.156852e-05	8.495062e-06	8.924817e-06
1.816408	1.916427e-06	2.149638e-05	8.509449e-06	9.033195e-06
1.817408	1.907926e-06	2.142077e-05	8.524222e-06	9.137751e-06
1.818409	1.899859e-06	2.134189e-05	8.539392e-06	9.238290e-06
1.819409	1.892224e-06	2.125996e-05	8.554972e-06	9.334619e-06
1.820410	1.885019e-06	2.117516e-05	8.570976e-06	9.426540e-06
1.821410	1.878240e-06	2.108771e-05	8.587416e-06	9.513859e-06
1.822411	1.871885e-06	2.099780e-05	8.604306e-06	9.596381e-06
1.823411	1.865950e-06	2.090563e-05	8.621657e-06	9.673910e-06
1.824412	1.860434e-06	2.081142e-05	8.639483e-06	9.746252e-06
1.825412	1.855334e-06	2.071542e-05	8.657808e-06	9.813257e-06
1.826413	1.850662e-06	2.061839e-05	8.676717e-06	9.875067e-06
1.827413	1.846433e-06	2.052123e-05	8.696323e-06	9.931936e-06
1.828414	1.842662e-06	2.042488e-05	8.716738e-06	9.984117e-06
1.829414	1.839365e-06	2.033025e-05	8.738073e-06	1.003186e-05
1.830415	1.836557e-06	2.023826e-05	8.760439e-06	1.007543e-05
1.831415	1.834253e-06	2.014982e-05	8.783949e-06	1.011507e-05
1.832416	1.832468e-06	2.006586e-05	8.808714e-06	1.015103e-05
1.833416	1.831218e-06	1.998730e-05	8.834846e-06	1.018358e-05
1.834417	1.830518e-06	1.991505e-05	8.862456e-06	1.021296e-05
1.835418	1.830383e-06	1.985003e-05	8.891656e-06	1.023942e-05
1.836418	1.830829e-06	1.979317e-05	8.922558e-06	1.026323e-05
1.837419	1.831871e-06	1.974538e-05	8.955273e-06	1.028463e-05
1.838419	1.833524e-06	1.970757e-05	8.989914e-06	1.030388e-05
1.839420	1.835804e-06	1.968068e-05	9.026591e-06	1.032122e-05
1.840420	1.838725e-06	1.966562e-05	9.065417e-06	1.033693e-05
1.841421	1.842304e-06	1.966330e-05	9.106503e-06	1.035124e-05
1.842421	1.846555e-06	1.967465e-05	9.149961e-06	1.036441e-05
1.843422	1.851493e-06	1.970059e-05	9.195902e-06	1.037670e-05
1.844422	1.857134e-06	1.974203e-05	9.244438e-06	1.038835e-05
1.845423	1.863494e-06	1.979989e-05	9.295682e-06	1.039963e-05
1.846423	1.870587e-06	1.987510e-05	9.349743e-06	1.041078e-05
1.847424	1.878429e-06	1.996856e-05	9.406735e-06	1.042207e-05
1.848424	1.887035e-06	2.008121e-05	9.466768e-06	1.043373e-05
1.849425	1.896420e-06	2.021396e-05	9.529955e-06	1.044603e-05
1.850425	1.906601e-06	2.036773e-05	9.596408e-06	1.045922e-05
1.851426	1.917591e-06	2.054343e-05	9.666237e-06	1.047356e-05
1.852426	1.929406e-06	2.074199e-05	9.739554e-06	1.048929e-05
1.853427	1.942062e-06	2.096432e-05	9.816472e-06	1.050667e-05
1.854428	1.955574e-06	2.121135e-05	9.897101e-06	1.052595e-05
1.855428	1.969957e-06	2.148400e-05	9.981554e-06	1.054740e-05
1.856429	1.985226e-06	2.178317e-05	1.006994e-05	1.057125e-05
1.857429	2.001397e-06	2.210980e-05	1.016238e-05	1.059777e-05
1.858430	2.018485e-06	2.246480e-05	1.025897e-05	1.062720e-05
1.859430	2.036506e-06	2.284909e-05	1.035983e-05	1.065981e-05
1.860431	2.055474e-06	2.326358e-05	1.046508e-05	1.069584e-05
1.861431	2.075404e-06	2.370921e-05	1.057482e-05	1.073555e-05
1.862432	2.096314e-06	2.418688e-05	1.068916e-05	1.077919e-05
1.863432	2.118216e-06	2.469751e-05	1.080822e-05	1.082702e-05
1.864433	2.141127e-06	2.524203e-05	1.093211e-05	1.087929e-05
1.865433	2.165063e-06	2.582135e-05	1.106094e-05	1.093625e-05
1.866434	2.190038e-06	2.643640e-05	1.119482e-05	1.099815e-05
1.867434	2.216067e-06	2.708809e-05	1.133387e-05	1.106526e-05
1.868435	2.243166e-06	2.777734e-05	1.147819e-05	1.113781e-05
1.869435	2.271351e-06	2.850506e-05	1.162790e-05	1.121608e-05
1.870436	2.300636e-06	2.927219e-05	1.178310e-05	1.130030e-05
1.871436	2.331037e-06	3.007963e-05	1.194392e-05	1.139074e-05
1.872437	2.362568e-06	3.092831e-05	1.211046e-05	1.148765e-05
1.873437	2.395247e-06	3.181915e-05	1.228283e-05	1.159127e-05
1.874438	2.429087e-06	3.275306e-05	1.246114e-05	1.170187e-05
1.875439	2.464095e-06	3.373061e-05	1.264546e-05	1.181963e-05
1.876439	2.500232e-06	3.475039e-05	1.283554e-05	1.194429e-05
1.877440	2.537439e-06	3.581028e-05	1.303102e-05	1.207545e-05
1.878440	2.575658e-06	3.690815e-05	1.323154e-05	1.221272e-05
1.879441	2.614833e-06	3.804187e-05	1.343675e-05	1.235570e-05
1.880441	2.654905e-06	3.920933e-05	1.364630e-05	1.250399e-05
1.881442	2.695817e-06	4.040840e-05	1.385983e-05	1.265719e-05
1.882442	2.737511e-06	4.163696e-05	1.407698e-05	1.281491e-05
1.883443	2.779930e-06	4.289288e-05	1.429740e-05	1.297673e-05
1.884443	2.823016e-06	4.417404e-05	1.452073e-05	1.314227e-05
1.885444	2.866712e-06	4.547832e-05	1.474662e-05	1.331112e-05
1.886444	2.910959e-06	4.680360e-05	1.497471e-05	1.348289e-05
1.887445	2.955701e-06	4.814775e-05	1.520465e-05	1.365717e-05
1.888445	3.000879e-06	4.950864e-05	1.543608e-05	1.383357e-05
1.889446	3.046436e-06	5.088416e-05	1.566864e-05	1.401169e-05
1.890446	3.092315e-06	5.227219e-05	1.590199e-05	1.419113e-05
1.891447	3.138457e-06	5.367059e-05	1.613576e-05	1.437149e-05
1.892447	3.184806e-06	5.507724e-05	1.636960e-05	1.455237e-05
1.893448	3.231304e-06	5.649003e-05	1.660316e-05	1.473337e-05
1.894449	3.277892e-06	5.790682e-05	1.683608e-05	1.491410e-05
1.895449	3.324514e-06	5.932551e-05	1.706799e-05	1.509415e-05
1.896450	3.371111e-06	6.074395e-05	1.729856e-05	1.527313e-05
1.897450	3.417627e-06	6.216003e-05	1.752742e-05	1.545063e-05
1.898451	3.464003e-06	6.357163e-05	1.775422e-05	1.562626e-05
1.899451	3.510182e-06	6.497661e-05	1.797859e-05	1.579962e-05
1.900452	3.556107e-06	6.637287e-05	1.820020e-05	1.597031e-05
1.901452	3.601719e-06	6.775827e-05	1.841867e-05	1.613793e-05
1.902453	3.646962e-06	6.913070e-05	1.863367e-05	1.630208e-05
1.903453	3.691777e-06	7.048802e-05	1.884482e-05	1.646236e-05
1.904454	3.736107e-06	7.182812e-05	1.905177e-05	1.661838e-05
1.905454	3.779894e-06	7.314887e-05	1.925418e-05	1.676973e-05
1.906455	3.823081e-06	7.444815e-05	1.945168e-05	1.691601e-05
1.907455	3.865610e-06	7.572384e-05	1.964392e-05	1.705684e-05
1.908456	3.907424e-06	7.697380e-05	1.983054e-05	1.719180e-05
1.909456	3.948464e-06	7.819593e-05	2.001119e-05	1.732049e-05
1.910457	3.988674e-06	7.938809e-05	2.018551e-05	1.744253e-05
1.911457	4.027996e-06	8.054817e-05	2.035315e-05	1.755751e-05
1.912458	4.066371e-06	8.167403e-05	2.051375e-05	1.766503e-05
1.913459	4.103743e-06	8.276357e-05	2.066696e-05	1.776469e-05
1.914459	4.140054e-06	8.381464e-05	2.081241e-05	1.785610e-05
1.915460	4.175246e-06	8.482513e-05	2.094977e-05	1.793885e-05
1.916460	4.209262e-06	8.579292e-05	2.107866e-05	1.801254e-05
1.917461	4.242044e-06	8.671588e-05	2.119874e-05	1.807678e-05
1.918461	4.273534e-06	8.759189e-05	2.130964e-05	1.813117e-05
1.919462	4.303676e-06	8.841883e-05	2.141102e-05	1.817531e-05
1.920462	4.332410e-06	8.919457e-05	2.150252e-05	1.820880e-05
1.921463	4.359680e-06	8.991699e-05	2.158378e-05	1.823124e-05
1.922463	4.385428e-06	9.058397e-05	2.165445e-05	1.824222e-05
1.923464	4.409596e-06	9.119338e-05	2.171417e-05	1.824137e-05
1.924464	4.432127e-06	9.174310e-05	2.176258e-05	1.822826e-05
1.925465	4.452975e-06	9.223147e-05	2.179943e-05	1.820262e-05
1.926465	4.472153e-06	9.265933e-05	2.182493e-05	1.816470e-05
1.927466	4.489695e-06	9.302829e-05	2.183946e-05	1.811494e-05
1.928466	4.505633e-06	9.333998e-05	2.184338e-05	1.805380e-05
1.929467	4.520001e-06	9.359602e-05	2.183709e-05	1.798172e-05
1.930467	4.532832e-06	9.379805e-05	2.182094e-05	1.789915e-05
1.931468	4.544160e-06	9.394769e-05	2.179532e-05	1.780652e-05
1.932468	4.554017e-06	9.404657e-05	2.176060e-05	1.770428e-05
1.933469	4.562436e-06	9.409631e-05	2.171715e-05	1.759288e-05
1.934470	4.569452e-06	9.409854e-05	2.166536e-05	1.747277e-05
1.935470	4.575097e-06	9.405489e-05	2.160559e-05	1.734438e-05
1.936471	4.579405e-06	9.396699e-05	2.153822e-05	1.720817e-05
1.937471	4.582408e-06	9.383645e-05	2.146363e-05	1.706457e-05
1.938472	4.584140e-06	9.366492e-05	2.138219e-05	1.691404e-05
1.939472	4.584634e-06	9.345401e-05	2.129427e-05	1.675701e-05
1.940473	4.583923e-06	9.320535e-05	2.120026e-05	1.659394e-05
1.941473	4.582041e-06	9.292057e-05	2.110052e-05	1.642526e-05
1.942474	4.579020e-06	9.260129e-05	2.099543e-05	1.625143e-05
1.943474	4.574894e-06	9.224915e-05	2.088537e-05	1.607288e-05
1.944475	4.569697e-06	9.186577e-05	2.077071e-05	1.589006e-05
1.945475	4.563461e-06	9.145277e-05	2.065183e-05	1.570342e-05
1.946476	4.556219e-06	9.101178e-05	2.052909e-05	1.551341e-05
1.947476	4.548005e-06	9.054444e-05	2.040289e-05	1.532046e-05
1.948477	4.538853e-06	9.005236e-05	2.027358e-05	1.512502e-05
1.949477	4.528794e-06	8.953717e-05	2.014155e-05	1.492754e-05
1.950478	4.517863e-06	8.900050e-05	2.000717e-05	1.472846e-05
1.951478	4.506092e-06	8.844398e-05	1.987082e-05	1.452823e-05
1.952479	4.493516e-06	8.786923e-05	1.973286e-05	1.432728e-05
1.953480	4.480166e-06	8.727789e-05	1.959369e-05	1.412608e-05
1.954480	4.466077e-06	8.667157e-05	1.945366e-05	1.392505e-05
1.955481	4.451282e-06	8.605190e-05	1.931316e-05	1.372466e-05
1.956481	4.435813e-06	8.542051e-05	1.917257e-05	1.352533e-05
1.957482	4.419704e-06	8.477904e-05	1.903224e-05	1.332752e-05
1.958482	4.402988e-06	8.412909e-05	1.889257e-05	1.313167e-05
1.959483	4.385698e-06	8.347231e-05	1.875393e-05	1.293822e-05
1.960483	4.367869e-06	8.281031e-05	1.861669e-05	1.274763e-05
1.961484	4.349532e-06	8.214473e-05	1.848122e-05	1.256033e-05
1.962484	4.330721e-06	8.147719e-05	1.834790e-05	1.237677e-05
1.963485	4.311469e-06	8.080932e-05	1.821712e-05	1.219740e-05
1.964485	4.291810e-06	8.014274e-05	1.808923e-05	1.202266e-05
1.965486	4.271776e-06	7.947908e-05	1.796462e-05	1.185299e-05
1.966486	4.251402e-06	7.881998e-05	1.784366e-05	1.168884e-05
1.967487	4.230719e-06	7.816704e-05	1.772672e-05	1.153066e-05
1.968487	4.209762e-06	7.752191e-05	1.761419e-05	1.137889e-05
1.969488	4.188563e-06	7.688621e-05	1.750643e-05	1.123397e-05
1.970488	4.167156e-06	7.626157e-05	1.740383e-05	1.109635e-05
1.971489	4.145574e-06	7.564960e-05	1.730675e-05	1.096648e-05
1.972489	4.123851e-06	7.505195e-05	1.721557e-05	1.084480e-05
1.973490	4.102018e-06	7.447023e-05	1.713067e-05	1.073175e-05
1.974491	4.080111e-06	7.390608e-05	1.705243e-05	1.062778e-05
1.975491	4.058163e-06	7.336093e-05	1.698113e-05	1.053325e-05
1.976492	4.036223e-06	7.283532e-05	1.691673e-05	1.044813e-05
1.977492	4.014340e-06	7.232954e-05	1.685907e-05	1.037226e-05
1.978493	3.992564e-06	7.184385e-05	1.680798e-05	1.030549e-05
1.979493	3.970946e-06	7.137853e-05	1.676331e-05	1.024766e-05
1.980494	3.949537e-06	7.093385e-05	1.672488e-05	1.019862e-05
1.981494	3.928386e-06	7.051008e-05	1.669254e-05	1.015821e-05
1.982495	3.907543e-06	7.010751e-05	1.666613e-05	1.012628e-05
1.983495	3.887060e-06	6.972639e-05	1.664548e-05	1.010267e-05
1.984496	3.866986e-06	6.936702e-05	1.663044e-05	1.008723e-05
1.985496	3.847371e-06	6.902965e-05	1.662084e-05	1.007980e-05
1.986497	3.828266e-06	6.871456e-05	1.661651e-05	1.008022e-05
1.987497	3.809721e-06	6.842204e-05	1.661730e-05	1.008836e-05
1.988498	3.791786e-06	6.815234e-05	1.662305e-05	1.010403e-05
1.989498	3.774512e-06	6.790574e-05	1.663359e-05	1.012711e-05
1.990499	3.757948e-06	6.768253e-05	1.664875e-05	1.015742e-05
1.991499	3.742146e-06	6.748296e-05	1.666839e-05	1.019481e-05
1.992500	3.727155e-06	6.730732e-05	1.669234e-05	1.023913e-05
1.993501	3.713026e-06	6.715588e-05	1.672043e-05	1.029023e-05
1.994501	3.699809e-06	6.702890e-05	1.675250e-05	1.034794e-05
1.995502	3.687554e-06	6.692668e-05	1.678839e-05	1.041212e-05
1.996502	3.676311e-06	6.684947e-05	1.682795e-05	1.048261e-05
1.997503	3.666131e-06	6.679755e-05	1.687100e-05	1.055925e-05
1.998503	3.657064e-06	6.677121e-05	1.691738e-05	1.064189e-05
1.999504	3.649160e-06	6.677070e-05	1.696694e-05	1.073037e-05
2.000504	3.642470e-06	6.679630e-05	1.701951e-05	1.082455e-05
2.001505	3.637043e-06	6.684829e-05	1.707493e-05	1.092426e-05
2.002505	3.632931e-06	6.692694e-05	1.713304e-05	1.102934e-05
2.003506	3.630183e-06	6.703252e-05	1.719367e-05	1.113966e-05
2.004506	3.628849e-06	6.716532e-05	1.725666e-05	1.125504e-05
2.005507	3.628981e-06	6.732559e-05	1.732186e-05	1.137534e-05
2.006507	3.630627e-06	6.751362e-05	1.738910e-05	1.150039e-05
2.007508	3.633839e-06	6.772967e-05	1.745821e-05	1.163005e-05
2.008508	3.638667e-06	6.797403e-05	1.752904e-05	1.176417e-05
2.009509	3.645160e-06	6.824696e-05	1.760143e-05	1.190257e-05
2.010509	3.653370e-06	6.854874e-05	1.767520e-05	1.204512e-05
2.011510	3.663346e-06	6.887965e-05	1.775021e-05	1.219165e-05
2.012511	3.675139e-06	6.923995e-05	1.782628e-05	1.234202e-05
2.013511	3.688799e-06	6.962992e-05	1.790327e-05	1.249606e-05
2.014512	3.704377e-06	7.004983e-05	1.798099e-05	1.265362e-05
2.015512	3.721922e-06	7.049996e-05	1.805930e-05	1.281454e-05
2.016513	3.741484e-06	7.098058e-05	1.813802e-05	1.297868e-05
2.017513	3.763115e-06	7.149197e-05	1.821701e-05	1.314587e-05
2.018514	3.786864e-06	7.203439e-05	1.829609e-05	1.331597e-05
2.019514	3.812782e-06	7.260812e-05	1.837511e-05	1.348881e-05
2.020515	3.840919e-06	7.321344e-05	1.845390e-05	1.366424e-05
2.021515	3.871325e-06	7.385061e-05	1.853229e-05	1.384211e-05
2.022516	3.904050e-06	7.451992e-05	1.861014e-05	1.402226e-05
2.023516	3.939145e-06	7.522163e-05	1.868728e-05	1.420453e-05
2.024517	3.976660e-06	7.595603e-05	1.876354e-05	1.438878e-05
2.025517	4.016625e-06	7.672305e-05	1.883878e-05	1.457484e-05
2.026518	4.058976e-06	7.752120e-05	1.891294e-05	1.476249e-05
2.027518	4.103625e-06	7.834861e-05	1.898598e-05	1.495152e-05
2.028519	4.150483e-06	7.920336e-05	1.905786e-05	1.514170e-05
2.029519	4.199462e-06	8.008359e-05	1.912855e-05	1.533280e-05
2.030520	4.250473e-06	8.098738e-05	1.919800e-05	1.552462e-05
2.031520	4.303428e-06	8.191286e-05	1.926618e-05	1.571692e-05
2.032521	4.358238e-06	8.285814e-05	1.933304e-05	1.590948e-05
2.033522	4.414814e-06	8.382131e-05	1.939855e-05	1.610208e-05
2.034522	4.473068e-06	8.480049e-05	1.946268e-05	1.629450e-05
2.035523	4.532912e-06	8.579380e-05	1.952537e-05	1.648651e-05
2.036523	4.594256e-06	8.679933e-05	1.958659e-05	1.667790e-05
2.037524	4.657012e-06	8.781520e-05	1.964631e-05	1.686843e-05
2.038524	4.721092e-06	8.883952e-05	1.970448e-05	1.705789e-05
2.039525	4.786407e-06	8.987040e-05	1.976107e-05	1.724606e-05
2.040525	4.852868e-06	9.090594e-05	1.981603e-05	1.743271e-05
2.041526	4.920387e-06	9.194426e-05	1.986934e-05	1.761762e-05
2.042526	4.988876e-06	9.298347e-05	1.992094e-05	1.780056e-05
2.043527	5.058245e-06	9.402166e-05	1.997080e-05	1.798132e-05
2.044527	5.128406e-06	9.505697e-05	2.001888e-05	1.815967e-05
2.045528	5.199271e-06	9.608748e-05	2.006515e-05	1.833540e-05
2.046528	5.270750e-06	9.711132e-05	2.010956e-05	1.850827e-05
2.047529	5.342756e-06	9.812658e-05	2.015208e-05	1.867806e-05
2.048529	5.415200e-06	9.913139e-05	2.019266e-05	1.884456e-05
2.049530	5.487993e-06	1.001238e-04	2.023127e-05	1.900754e-05
2.050530	5.561047e-06	1.011021e-04	2.026787e-05	1.916677e-05
2.051531	5.634272e-06	1.020641e-04	2.030242e-05	1.932204e-05
2.052532	5.707582e-06	1.030082e-04	2.033488e-05	1.947312e-05
2.053532	5.780886e-06	1.039324e-04	2.036521e-05	1.961980e-05
2.054533	5.854096e-06	1.048347e-04	2.039338e-05	1.976184e-05
2.055533	5.927125e-06	1.057134e-04	2.041934e-05	1.989902e-05
2.056534	5.999882e-06	1.065664e-04	2.044306e-05	2.003113e-05
2.057534	6.072280e-06	1.073920e-04	2.046450e-05	2.015794e-05
2.058535	6.144230e-06	1.081882e-04	2.048361e-05	2.027922e-05
2.059535	6.215644e-06	1.089532e-04	2.050037e-05	2.039477e-05
2.060536	6.286432e-06	1.096850e-04	2.051472e-05	2.050434e-05
2.061536	6.356507e-06	1.103818e-04	2.052664e-05	2.060772e-05
2.062537	6.425779e-06	1.110416e-04	2.053608e-05	2.070470e-05
2.063537	6.494161e-06	1.116627e-04	2.054301e-05	2.079503e-05
2.064538	6.561563e-06	1.122430e-04	2.054738e-05	2.087852e-05
2.065538	6.627897e-06	1.127807e-04	2.054916e-05	2.095492e-05
2.066539	6.693075e-06	1.132739e-04	2.054831e-05	2.102402e-05
2.067539	6.757007e-06	1.137207e-04	2.054479e-05	2.108559e-05
2.068540	6.819606e-06	1.141193e-04	2.053856e-05	2.113942e-05
2.069540	6.880783e-06	1.144677e-04	2.052958e-05	2.118528e-05
2.070541	6.940448e-06	1.147640e-04	2.051781e-05	2.122294e-05
2.071541	6.998514e-06	1.150064e-04	2.050322e-05	2.125220e-05
2.072542	7.054892e-06	1.151930e-04	2.048576e-05	2.127281e-05
2.073543	7.109494e-06	1.153218e-04	2.046541e-05	2.128457e-05
2.074543	7.162230e-06	1.153910e-04	2.044211e-05	2.128724e-05
2.075544	7.213026e-06	1.153995e-04	2.041587e-05	2.128070e-05
2.076544	7.261862e-06	1.153492e-04	2.038685e-05	2.126516e-05
2.077545	7.308732e-06	1.152430e-04	2.035528e-05	2.124093e-05
2.078545	7.353632e-06	1.150836e-04	2.032135e-05	2.120833e-05
2.079546	7.396555e-06	1.148739e-04	2.028528e-05	2.116767e-05
2.080546	7.437496e-06	1.146167e-04	2.024727e-05	2.111925e-05
2.081547	7.476449e-06	1.143148e-04	2.020755e-05	2.106340e-05
2.082547	7.513409e-06	1.139709e-04	2.016630e-05	2.100041e-05
2.083548	7.548371e-06	1.135879e-04	2.012376e-05	2.093061e-05
2.084548	7.581328e-06	1.131685e-04	2.008012e-05	2.085430e-05
2.085549	7.612275e-06	1.127157e-04	2.003560e-05	2.077179e-05
2.086549	7.641207e-06	1.122321e-04	1.999040e-05	2.068340e-05
2.087550	7.668118e-06	1.117205e-04	1.994474e-05	2.058943e-05
2.088550	7.693002e-06	1.111839e-04	1.989883e-05	2.049020e-05
2.089551	7.715854e-06	1.106250e-04	1.985287e-05	2.038602e-05
2.090551	7.736669e-06	1.100465e-04	1.980708e-05	2.027720e-05
2.091552	7.755441e-06	1.094513e-04	1.976166e-05	2.016405e-05
2.092553	7.772164e-06	1.088422e-04	1.971683e-05	2.004688e-05
2.093553	7.786832e-06	1.082220e-04	1.967279e-05	1.992601e-05
2.094554	7.799441e-06	1.075935e-04	1.962976e-05	1.980174e-05
2.095554	7.809985e-06	1.069594e-04	1.958794e-05	1.967439e-05
2.096555	7.818458e-06	1.063227e-04	1.954755e-05	1.954426e-05
2.097555	7.824854e-06	1.056861e-04	1.950879e-05	1.941167e-05
2.098556	7.829168e-06	1.050523e-04	1.947187e-05	1.927694e-05
2.099556	7.831395e-06	1.044243e-04	1.943701e-05	1.914036e-05
2.100557	7.831528e-06	1.038047e-04	1.940442e-05	1.900225e-05
2.101557	7.829564e-06	1.031965e-04	1.937430e-05	1.886293e-05
2.102558	7.825494e-06	1.026024e-04	1.934686e-05	1.872270e-05
2.103558	7.819316e-06	1.020251e-04	1.932231e-05	1.858188e-05
2.104559	7.811021e-06	1.014676e-04	1.930087e-05	1.844077e-05
2.105559	7.800607e-06	1.009326e-04	1.928274e-05	1.829969e-05
2.106560	7.788065e-06	1.004229e-04	1.926814e-05	1.815895e-05
2.107560	7.773392e-06	9.994132e-05	1.925727e-05	1.801886e-05
2.108561	7.756581e-06	9.949065e-05	1.925034e-05	1.787973e-05
2.109561	7.737628e-06	9.907369e-05	1.924756e-05	1.774188e-05
2.110562	7.716525e-06	9.869325e-05	1.924915e-05	1.760560e-05
2.111562	7.693269e-06	9.835213e-05	1.925530e-05	1.747123e-05
2.112563	7.667853e-06	9.805313e-05	1.926625e-05	1.733906e-05
2.113564	7.640272e-06	9.779906e-05	1.928218e-05	1.720940e-05
2.114564	7.610520e-06	9.759271e-05	1.930331e-05	1.708258e-05
2.115565	7.578592e-06	9.743689e-05	1.932986e-05	1.695889e-05
2.116565	7.544481e-06	9.733439e-05	1.936203e-05	1.683866e-05
2.117566	7.508184e-06	9.728803e-05	1.940003e-05	1.672219e-05
2.118566	7.469693e-06	9.730060e-05	1.944407e-05	1.660979e-05
2.119567	7.429005e-06	9.737490e-05	1.949436e-05	1.650177e-05
2.120567	7.386112e-06	9.751374e-05	1.955112e-05	1.639845e-05
2.121568	7.341009e-06	9.771991e-05	1.961454e-05	1.630014e-05
2.122568	7.293691e-06	9.799623e-05	1.968485e-05	1.620715e-05
2.123569	7.244153e-06	9.834548e-05	1.976225e-05	1.611978e-05
2.124569	7.192388e-06	9.877048e-05	1.984694e-05	1.603836e-05
2.125570	7.138417e-06	9.927303e-05	1.993904e-05	1.596313e-05
2.126570	7.082359e-06	9.985118e-05	2.003819e-05	1.589409e-05
2.127571	7.024352e-06	1.005021e-04	2.014397e-05	1.583122e-05
2.128571	6.964538e-06	1.012230e-04	2.025594e-05	1.577446e-05
2.129572	6.903058e-06	1.020111e-04	2.037366e-05	1.572377e-05
2.130572	6.840051e-06	1.028634e-04	2.049670e-05	1.567911e-05
2.131573	6.775660e-06	1.037772e-04	2.062462e-05	1.564044e-05
2.132574	6.710023e-06	1.047498e-04	2.075698e-05	1.560772e-05
2.133574	6.643282e-06	1.057781e-04	2.089336e-05	1.558089e-05
2.134575	6.575577e-06	1.068595e-04	2.103330e-05	1.555992e-05
2.135575	6.507048e-06	1.079911e-04	2.117638e-05	1.554477e-05
2.136576	6.437837e-06	1.091700e-04	2.132216e-05	1.553538e-05
2.137576	6.368084e-06	1.103935e-04	2.147021e-05	1.553173e-05
2.138577	6.297929e-06	1.116587e-04	2.162008e-05	1.553376e-05
2.139577	6.227514e-06	1.129629e-04	2.177134e-05	1.554143e-05
2.140578	6.156977e-06	1.143031e-04	2.192356e-05	1.555471e-05
2.141578	6.086461e-06	1.156766e-04	2.207630e-05	1.557354e-05
2.142579	6.016106e-06	1.170805e-04	2.222913e-05	1.559788e-05
2.143579	5.946051e-06	1.185120e-04	2.238160e-05	1.562769e-05
2.144580	5.876438e-06	1.199683e-04	2.253328e-05	1.566294e-05
2.145580	5.807408e-06	1.214466e-04	2.268374e-05	1.570356e-05
2.146581	5.739101e-06	1.229440e-04	2.283253e-05	1.574953e-05
2.147581	5.671656e-06	1.244578e-04	2.297923e-05	1.580080e-05
2.148582	5.605216e-06	1.259850e-04	2.312340e-05	1.585732e-05
2.149582	5.539921e-06	1.275230e-04	2.326459e-05	1.591905e-05
2.150583	5.475910e-06	1.290687e-04	2.340238e-05	1.598596e-05
2.151584	5.413325e-06	1.306195e-04	2.353633e-05	1.605799e-05
2.152584	5.352306e-06	1.321725e-04	2.366601e-05	1.613510e-05
2.153585	5.292994e-06	1.337249e-04	2.379096e-05	1.621726e-05
2.154585	5.235529e-06	1.352739e-04	2.391077e-05	1.630441e-05
2.155586	5.180053e-06	1.368166e-04	2.402499e-05	1.639652e-05
2.156586	5.126704e-06	1.383502e-04	2.413319e-05	1.649354e-05
2.157587	5.075624e-06	1.398718e-04	2.423494e-05	1.659543e-05
2.158587	5.026954e-06	1.413788e-04	2.432978e-05	1.670214e-05
2.159588	4.980834e-06	1.428682e-04	2.441730e-05	1.681364e-05
2.160588	4.937405e-06	1.443372e-04	2.449705e-05	1.692988e-05
2.161589	4.896807e-06	1.457830e-04	2.456860e-05	1.705081e-05
2.162589	4.859180e-06	1.472028e-04	2.463151e-05	1.717640e-05
2.163590	4.824666e-06	1.485937e-04	2.468534e-05	1.730659e-05
2.164590	4.793405e-06	1.499530e-04	2.472967e-05	1.744136e-05
2.165591	4.765537e-06	1.512777e-04	2.476404e-05	1.758065e-05
2.166591	4.741203e-06	1.525652e-04	2.478804e-05	1.772442e-05
2.167592	4.720544e-06	1.538125e-04	2.480121e-05	1.787263e-05
2.168592	4.703699e-06	1.550168e-04	2.480313e-05	1.802524e-05
2.169593	4.690811e-06	1.561753e-04	2.479336e-05	1.818220e-05
2.170593	4.682018e-06	1.572853e-04	2.477146e-05	1.834347e-05
2.171594	4.677462e-06	1.583438e-04	2.473699e-05	1.850900e-05
2.172595	4.677284e-06	1.593480e-04	2.468953e-05	1.867876e-05
2.173595	4.681623e-06	1.602952e-04	2.462863e-05	1.885270e-05
2.174596	4.690621e-06	1.611824e-04	2.455386e-05	1.903078e-05
2.175596	4.704359e-06	1.620077e-04	2.446504e-05	1.921290e-05
2.176597	4.722715e-06	1.627718e-04	2.436292e-05	1.939879e-05
2.177597	4.745525e-06	1.634758e-04	2.424843e-05	1.958812e-05
2.178598	4.772622e-06	1.641211e-04	2.412252e-05	1.978059e-05
2.179598	4.803841e-06	1.647090e-04	2.398611e-05	1.997588e-05
2.180599	4.839016e-06	1.652406e-04	2.384016e-05	2.017368e-05
2.181599	4.877981e-06	1.657173e-04	2.368559e-05	2.037365e-05
2.182600	4.920571e-06	1.661403e-04	2.352335e-05	2.057550e-05
2.183600	4.966621e-06	1.665109e-04	2.335438e-05	2.077891e-05
2.184601	5.015963e-06	1.668304e-04	2.317960e-05	2.098355e-05
2.185601	5.068434e-06	1.670999e-04	2.299997e-05	2.118912e-05
2.186602	5.123866e-06	1.673209e-04	2.281641e-05	2.139530e-05
2.187602	5.182095e-06	1.674945e-04	2.262988e-05	2.160177e-05
2.188603	5.242955e-06	1.676221e-04	2.244130e-05	2.180821e-05
2.189603	5.306280e-06	1.677048e-04	2.225161e-05	2.201431e-05
2.190604	5.371904e-06	1.677440e-04	2.206176e-05	2.221976e-05
2.191605	5.439662e-06	1.677409e-04	2.187268e-05	2.242424e-05
2.192605	5.509389e-06	1.676968e-04	2.168531e-05	2.262743e-05
2.193606	5.580918e-06	1.676129e-04	2.150058e-05	2.282901e-05
2.194606	5.654084e-06	1.674905e-04	2.131945e-05	2.302868e-05
2.195607	5.728721e-06	1.673309e-04	2.114283e-05	2.322611e-05
2.196607	5.804663e-06	1.671354e-04	2.097168e-05	2.342099e-05
2.197608	5.881746e-06	1.669051e-04	2.080693e-05	2.361301e-05
2.198608	5.959802e-06	1.666415e-04	2.064953e-05	2.380184e-05
2.199609	6.038667e-06	1.663457e-04	2.050039e-05	2.398718e-05
2.200609	6.118176e-06	1.660189e-04	2.036048e-05	2.416870e-05
2.201610	6.198161e-06	1.656626e-04	2.023072e-05	2.434609e-05
2.202610	6.278458e-06	1.652779e-04	2.011205e-05	2.451903e-05
2.203611	6.358901e-06	1.648661e-04	2.000542e-05	2.468722e-05
2.204611	6.439324e-06	1.644284e-04	1.991175e-05	2.485032e-05
2.205612	6.519562e-06	1.639662e-04	1.983200e-05	2.500804e-05
2.206612	6.599449e-06	1.634807e-04	1.976709e-05	2.516004e-05
2.207613	6.678819e-06	1.629732e-04	1.971796e-05	2.530602e-05
2.208613	6.757506e-06	1.624449e-04	1.968556e-05	2.544566e-05
2.209614	6.835346e-06	1.618970e-04	1.967082e-05	2.557864e-05
2.210614	6.912172e-06	1.613310e-04	1.967468e-05	2.570466e-05
2.211615	6.987819e-06	1.607479e-04	1.969807e-05	2.582338e-05
2.212616	7.062120e-06	1.601492e-04	1.974195e-05	2.593450e-05
2.213616	7.134912e-06	1.595360e-04	1.980724e-05	2.603769e-05
2.214617	7.206026e-06	1.589097e-04	1.989488e-05	2.613266e-05
2.215617	7.275299e-06	1.582714e-04	2.000582e-05	2.621907e-05
2.216618	7.342564e-06	1.576225e-04	2.014098e-05	2.629661e-05
2.217618	7.407656e-06	1.569642e-04	2.030132e-05	2.636498e-05
2.218619	7.470409e-06	1.562977e-04	2.048776e-05	2.642384e-05
2.219619	7.530658e-06	1.556245e-04	2.070124e-05	2.647289e-05
2.220620	7.588236e-06	1.549456e-04	2.094271e-05	2.651180e-05
2.221620	7.642978e-06	1.542624e-04	2.121310e-05	2.654027e-05
2.222621	7.694719e-06	1.535762e-04	2.151336e-05	2.655798e-05
2.223621	7.743292e-06	1.528882e-04	2.184441e-05	2.656461e-05
2.224622	7.788533e-06	1.521997e-04	2.220720e-05	2.655985e-05
2.225622	7.830347e-06	1.515122e-04	2.260220e-05	2.654350e-05
2.226623	7.868871e-06	1.508282e-04	2.302841e-05	2.651580e-05
2.227623	7.904286e-06	1.501505e-04	2.348455e-05	2.647704e-05
2.228624	7.936776e-06	1.494816e-04	2.396931e-05	2.642754e-05
2.229624	7.966522e-06	1.488244e-04	2.448141e-05	2.636759e-05
2.230625	7.993706e-06	1.481814e-04	2.501955e-05	2.629751e-05
2.231626	8.018511e-06	1.475554e-04	2.558244e-05	2.621759e-05
2.232626	8.041118e-06	1.469490e-04	2.616878e-05	2.612814e-05
2.233627	8.061711e-06	1.463650e-04	2.677728e-05	2.602947e-05
2.234627	8.080470e-06	1.458059e-04	2.740664e-05	2.592188e-05
2.235628	8.097579e-06	1.452746e-04	2.805558e-05	2.580568e-05
2.236628	8.113219e-06	1.447736e-04	2.872279e-05	2.568117e-05
2.237629	8.127572e-06	1.443057e-04	2.940700e-05	2.554865e-05
2.238629	8.140821e-06	1.438736e-04	3.010689e-05	2.540844e-05
2.239630	8.153148e-06	1.434799e-04	3.082118e-05	2.526083e-05
2.240630	8.164735e-06	1.431273e-04	3.154858e-05	2.510614e-05
2.241631	8.175764e-06	1.428186e-04	3.228779e-05	2.494466e-05
2.242631	8.186418e-06	1.425563e-04	3.303752e-05	2.477670e-05
2.243632	8.196878e-06	1.423432e-04	3.379647e-05	2.460257e-05
2.244632	8.207327e-06	1.421819e-04	3.456335e-05	2.442257e-05
2.245633	8.217946e-06	1.420752e-04	3.533687e-05	2.423701e-05
2.246633	8.228919e-06	1.420258e-04	3.611574e-05	2.404619e-05
2.247634	8.240426e-06	1.420362e-04	3.689865e-05	2.385042e-05
2.248634	8.252652e-06	1.421092e-04	3.768432e-05	2.364999e-05
2.249635	8.265776e-06	1.422476e-04	3.847146e-05	2.344523e-05
2.250636	8.279982e-06	1.424539e-04	3.925876e-05	2.323642e-05
2.251636	8.295452e-06	1.427308e-04	4.004494e-05	2.302388e-05
2.252637	8.312368e-06	1.430811e-04	4.082870e-05	2.280791e-05
2.253637	8.330913e-06	1.435074e-04	4.160875e-05	2.258882e-05
2.254638	8.351267e-06	1.440124e-04	4.238380e-05	2.236691e-05
2.255638	8.373614e-06	1.445989e-04	4.315255e-05	2.214249e-05
2.256639	8.398136e-06	1.452694e-04	4.391370e-05	2.191585e-05
2.257639	8.425014e-06	1.460266e-04	4.466597e-05	2.168732e-05
2.258640	8.454432e-06	1.468733e-04	4.540807e-05	2.145718e-05
2.259640	8.486570e-06	1.478122e-04	4.613869e-05	2.122575e-05
2.260641	8.521612e-06	1.488458e-04	4.685654e-05	2.099333e-05
2.261641	8.559739e-06	1.499770e-04	4.756034e-05	2.076023e-05
2.262642	8.601134e-06	1.512083e-04	4.824878e-05	2.052675e-05
2.263642	8.645979e-06	1.525425e-04	4.892058e-05	2.029319e-05
2.264643	8.694456e-06	1.539823e-04	4.957444e-05	2.005987e-05
2.265643	8.746747e-06	1.555303e-04	5.020906e-05	1.982708e-05
2.266644	8.803034e-06	1.571892e-04	5.082316e-05	1.959513e-05
2.267644	8.863500e-06	1.589618e-04	5.141543e-05	1.936433e-05
2.268645	8.928326e-06	1.608506e-04	5.198459e-05	1.913498e-05
2.269645	8.997695e-06	1.628584e-04	5.252935e-05	1.890739e-05
2.270646	9.071789e-06	1.649879e-04	5.304840e-05	1.868185e-05
2.271647	9.150790e-06	1.672417e-04	5.354046e-05	1.845869e-05
2.272647	9.234880e-06	1.696226e-04	5.400423e-05	1.823819e-05
2.273648	9.324242e-06	1.721332e-04	5.443842e-05	1.802067e-05
2.274648	9.419057e-06	1.747762e-04	5.484173e-05	1.780643e-05
2.275649	9.519405e-06	1.775521e-04	5.521332e-05	1.759573e-05
2.276649	9.625056e-06	1.804551e-04	5.555368e-05	1.738871e-05
2.277650	9.735728e-06	1.834782e-04	5.586351e-05	1.718546e-05
2.278650	9.851136e-06	1.866143e-04	5.614355e-05	1.698611e-05
2.279651	9.970996e-06	1.898565e-04	5.639451e-05	1.679074e-05
2.280651	1.009503e-05	1.931978e-04	5.661712e-05	1.659949e-05
2.281652	1.022294e-05	1.966311e-04	5.681210e-05	1.641244e-05
2.282652	1.035445e-05	2.001494e-04	5.698017e-05	1.622971e-05
2.283653	1.048928e-05	2.037458e-04	5.712205e-05	1.605140e-05
2.284653	1.062715e-05	2.074132e-04	5.723847e-05	1.587763e-05
2.285654	1.076776e-05	2.111445e-04	5.733014e-05	1.570850e-05
2.286654	1.091084e-05	2.149329e-04	5.739779e-05	1.554412e-05
2.287655	1.105609e-05	2.187713e-04	5.744215e-05	1.538459e-05
2.288655	1.120325e-05	2.226526e-04	5.746392e-05	1.523002e-05
2.289656	1.135202e-05	2.265699e-04	5.746384e-05	1.508052e-05
2.290657	1.150212e-05	2.305161e-04	5.744263e-05	1.493621e-05
2.291657	1.165326e-05	2.344843e-04	5.740101e-05	1.479717e-05
2.292658	1.180516e-05	2.384675e-04	5.733969e-05	1.466353e-05
2.293658	1.195755e-05	2.424585e-04	5.725941e-05	1.453539e-05
2.294659	1.211012e-05	2.464505e-04	5.716088e-05	1.441286e-05
2.295659	1.226261e-05	2.504364e-04	5.704483e-05	1.429604e-05
2.296660	1.241472e-05	2.544092e-04	5.691198e-05	1.418504e-05
2.297660	1.256617e-05	2.583619e-04	5.676304e-05	1.407997e-05
2.298661	1.271668e-05	2.622875e-04	5.659875e-05	1.398094e-05
2.299661	1.286596e-05	2.661790e-04	5.641982e-05	1.388806e-05
2.300662	1.301374e-05	2.700293e-04	5.622698e-05	1.380143e-05
2.301662	1.315972e-05	2.738314e-04	5.602095e-05	1.372115e-05
2.302663	1.330362e-05	2.775785e-04	5.580245e-05	1.364735e-05
2.303663	1.344516e-05	2.812633e-04	5.557219e-05	1.358012e-05
2.304664	1.358405e-05	2.848790e-04	5.533092e-05	1.351957e-05
2.305664	1.372002e-05	2.884185e-04	5.507933e-05	1.346581e-05
2.306665	1.385277e-05	2.918748e-04	5.481817e-05	1.341894e-05
2.307665	1.398203e-05	2.952409e-04	5.454814e-05	1.337908e-05
2.308666	1.410750e-05	2.985098e-04	5.426998e-05	1.334634e-05
2.309666	1.422890e-05	3.016745e-04	5.398440e-05	1.332081e-05
2.310667	1.434596e-05	3.047279e-04	5.369212e-05	1.330261e-05
2.311668	1.445839e-05	3.076631e-04	5.339387e-05	1.329184e-05
2.312668	1.456589e-05	3.104731e-04	5.309038e-05	1.328862e-05
2.313669	1.466820e-05	3.131508e-04	5.278235e-05	1.329304e-05
2.314669	1.476502e-05	3.156892e-04	5.247051e-05	1.330522e-05
2.315670	1.485607e-05	3.180814e-04	5.215559e-05	1.332527e-05
2.316670	1.494107e-05	3.203202e-04	5.183831e-05	1.335329e-05
2.317671	1.501974e-05	3.223988e-04	5.151939e-05	1.338938e-05
2.318671	1.509178e-05	3.243101e-04	5.119955e-05	1.343367e-05
2.319672	1.515692e-05	3.260471e-04	5.087951e-05	1.348624e-05
2.320672	1.521487e-05	3.276027e-04	5.055999e-05	1.354722e-05
2.321673	1.526534e-05	3.289700e-04	5.024172e-05	1.361671e-05
2.322673	1.530806e-05	3.301420e-04	4.992542e-05	1.369481e-05
2.323674	1.534274e-05	3.311116e-04	4.961182e-05	1.378164e-05
2.324674	1.536910e-05	3.318719e-04	4.930162e-05	1.387729e-05
2.325675	1.538699e-05	3.324192e-04	4.899541e-05	1.398173e-05
2.326675	1.539668e-05	3.327590e-04	4.869334e-05	1.409447e-05
2.327676	1.539848e-05	3.328984e-04	4.839551e-05	1.421494e-05
2.328676	1.539271e-05	3.328446e-04	4.810202e-05	1.434260e-05
2.329677	1.537971e-05	3.326045e-04	4.781296e-05	1.447688e-05
2.330678	1.535978e-05	3.321854e-04	4.752841e-05	1.461723e-05
2.331678	1.533326e-05	3.315941e-04	4.724848e-05	1.476310e-05
2.332679	1.530047e-05	3.308380e-04	4.697325e-05	1.491393e-05
2.333679	1.526172e-05	3.299240e-04	4.670283e-05	1.506915e-05
2.334680	1.521734e-05	3.288592e-04	4.643730e-05	1.522822e-05
2.335680	1.516765e-05	3.276507e-04	4.617676e-05	1.539058e-05
2.336681	1.511298e-05	3.263056e-04	4.592129e-05	1.555567e-05
2.337681	1.505364e-05	3.248309e-04	4.567100e-05	1.572293e-05
2.338682	1.498996e-05	3.232339e-04	4.542598e-05	1.589182e-05
2.339682	1.492225e-05	3.215214e-04	4.518632e-05	1.606176e-05
2.340683	1.485086e-05	3.197007e-04	4.495212e-05	1.623221e-05
2.341683	1.477608e-05	3.177788e-04	4.472346e-05	1.640261e-05
2.342684	1.469825e-05	3.157628e-04	4.450044e-05	1.657240e-05
2.343684	1.461769e-05	3.136598e-04	4.428316e-05	1.674103e-05
2.344685	1.453472e-05	3.114769e-04	4.407171e-05	1.690793e-05
2.345685	1.444966e-05	3.092211e-04	4.386617e-05	1.707256e-05
2.346686	1.436284e-05	3.068996e-04	4.366666e-05	1.723436e-05
2.347686	1.427457e-05	3.045193e-04	4.347325e-05	1.739277e-05
2.348687	1.418518e-05	3.020875e-04	4.328604e-05	1.754722e-05
2.349687	1.409500e-05	2.996112e-04	4.310512e-05	1.769718e-05
2.350688	1.400433e-05	2.970974e-04	4.293060e-05	1.784208e-05
2.351689	1.391352e-05	2.945533e-04	4.276256e-05	1.798136e-05
2.352689	1.382286e-05	2.919860e-04	4.260109e-05	1.811447e-05
2.353690	1.373270e-05	2.894025e-04	4.244629e-05	1.824085e-05
2.354690	1.364335e-05	2.868098e-04	4.229825e-05	1.835994e-05
2.355691	1.355514e-05	2.842152e-04	4.215707e-05	1.847119e-05
2.356691	1.346837e-05	2.816257e-04	4.202284e-05	1.857405e-05
2.357692	1.338339e-05	2.790484e-04	4.189565e-05	1.866794e-05
2.358692	1.330051e-05	2.764903e-04	4.177560e-05	1.875233e-05
2.359693	1.322005e-05	2.739585e-04	4.166277e-05	1.882665e-05
2.360693	1.314233e-05	2.714602e-04	4.155727e-05	1.889035e-05
2.361694	1.306768e-05	2.690024e-04	4.145919e-05	1.894286e-05
2.362694	1.299642e-05	2.665921e-04	4.136861e-05	1.898364e-05
2.363695	1.292887e-05	2.642366e-04	4.128564e-05	1.901212e-05
2.364695	1.286535e-05	2.619428e-04	4.121036e-05	1.902775e-05
2.365696	1.280618e-05	2.597179e-04	4.114287e-05	1.902998e-05
2.366696	1.275169e-05	2.575688e-04	4.108327e-05	1.901824e-05
2.367697	1.270221e-05	2.555029e-04	4.103164e-05	1.899198e-05
2.368697	1.265804e-05	2.535270e-04	4.098808e-05	1.895065e-05
2.369698	1.261951e-05	2.516483e-04	4.095269e-05	1.889368e-05
2.370699	1.258695e-05	2.498738e-04	4.092555e-05	1.882052e-05
2.371699	1.256068e-05	2.482108e-04	4.090676e-05	1.873062e-05
2.372700	1.254102e-05	2.466661e-04	4.089642e-05	1.862342e-05
2.373700	1.252829e-05	2.452470e-04	4.089461e-05	1.849835e-05
2.374701	1.252281e-05	2.439605e-04	4.090143e-05	1.835488e-05
2.375701	1.252470e-05	2.428105e-04	4.091684e-05	1.819286e-05
2.376702	1.253357e-05	2.417930e-04	4.094042e-05	1.801324e-05
2.377702	1.254894e-05	2.409026e-04	4.097170e-05	1.781713e-05
2.378703	1.257032e-05	2.401341e-04	4.101024e-05	1.760565e-05
2.379703	1.259725e-05	2.394821e-04	4.105556e-05	1.737992e-05
2.380704	1.262925e-05	2.389415e-04	4.110720e-05	1.714103e-05
2.381704	1.266583e-05	2.385067e-04	4.116469e-05	1.689010e-05
2.382705	1.270653e-05	2.381727e-04	4.122759e-05	1.662826e-05
2.383705	1.275087e-05	2.379340e-04	4.129541e-05	1.635660e-05
2.384706	1.279837e-05	2.377854e-04	4.136770e-05	1.607624e-05
2.385706	1.284855e-05	2.377215e-04	4.144400e-05	1.578829e-05
2.386707	1.290094e-05	2.377371e-04	4.152383e-05	1.549387e-05
2.387707	1.295506e-05	2.378269e-04	4.160675e-05	1.519409e-05
2.388708	1.301043e-05	2.379856e-04	4.169228e-05	1.489005e-05
2.389709	1.306658e-05	2.382079e-04	4.177997e-05	1.458288e-05
2.390709	1.312303e-05	2.384884e-04	4.186934e-05	1.427368e-05
2.391710	1.317930e-05	2.388219e-04	4.195994e-05	1.396357e-05
2.392710	1.323492e-05	2.392031e-04	4.205130e-05	1.365366e-05
2.393711	1.328941e-05	2.396267e-04	4.214296e-05	1.334506e-05
2.394711	1.334229e-05	2.400873e-04	4.223446e-05	1.303889e-05
2.395712	1.339309e-05	2.405798e-04	4.232533e-05	1.273625e-05
2.396712	1.344133e-05	2.410987e-04	4.241511e-05	1.243825e-05
2.397713	1.348653e-05	2.416388e-04	4.250334e-05	1.214602e-05
2.398713	1.352822e-05	2.421948e-04	4.258955e-05	1.186066e-05
2.399714	1.356592e-05	2.427615e-04	4.267328e-05	1.158329e-05
2.400714	1.359916e-05	2.433334e-04	4.275407e-05	1.131501e-05
2.401715	1.362745e-05	2.439053e-04	4.283146e-05	1.105695e-05
2.402715	1.365032e-05	2.444719e-04	4.290497e-05	1.081020e-05
2.403716	1.366729e-05	2.450279e-04	4.297415e-05	1.057589e-05
2.404716	1.367789e-05	2.455680e-04	4.303854e-05	1.035513e-05
2.405717	1.368164e-05	2.460869e-04	4.309767e-05	1.014903e-05
2.406717	1.367806e-05	2.465793e-04	4.315108e-05	9.958694e-06
2.407718	1.366668e-05	2.470399e-04	4.319830e-05	9.785246e-06
2.408718	1.364701e-05	2.474634e-04	4.323887e-05	9.629793e-06
2.409719	1.361859e-05	2.478446e-04	4.327234e-05	9.493449e-06
2.410720	1.358094e-05	2.481780e-04	4.329823e-05	9.377325e-06
2.411720	1.353358e-05	2.484584e-04	4.331608e-05	9.282535e-06
2.412721	1.347603e-05	2.486806e-04	4.332543e-05	9.210189e-06
2.413721	1.340781e-05	2.488392e-04	4.332582e-05	9.161402e-06
2.414722	1.332846e-05	2.489289e-04	4.331678e-05	9.137284e-06
2.415722	1.323749e-05	2.489444e-04	4.329785e-05	9.138948e-06
2.416723	1.313442e-05	2.488805e-04	4.326856e-05	9.167507e-06
2.417723	1.301878e-05	2.487317e-04	4.322846e-05	9.224073e-06
2.418724	1.289010e-05	2.484929e-04	4.317708e-05	9.309757e-06
2.419724	1.274789e-05	2.481587e-04	4.311396e-05	9.425674e-06
2.420725	1.259168e-05	2.477239e-04	4.303863e-05	9.572934e-06
2.421725	1.242100e-05	2.471830e-04	4.295063e-05	9.752650e-06
2.422726	1.223536e-05	2.465309e-04	4.284950e-05	9.965934e-06
2.423726	1.203429e-05	2.457622e-04	4.273477e-05	1.021390e-05
2.424727	1.181731e-05	2.448717e-04	4.260599e-05	1.049766e-05
2.425727	1.158442e-05	2.438566e-04	4.246300e-05	1.081759e-05
2.426728	1.133669e-05	2.427202e-04	4.230639e-05	1.117239e-05
2.427728	1.107536e-05	2.414665e-04	4.213684e-05	1.156053e-05
2.428729	1.080165e-05	2.400997e-04	4.195504e-05	1.198046e-05
2.429730	1.051681e-05	2.386240e-04	4.176169e-05	1.243064e-05
2.430730	1.022207e-05	2.370433e-04	4.155746e-05	1.290952e-05
2.431731	9.918647e-06	2.353618e-04	4.134304e-05	1.341557e-05
2.432731	9.607788e-06	2.335837e-04	4.111913e-05	1.394723e-05
2.433732	9.290723e-06	2.317130e-04	4.088641e-05	1.450297e-05
2.434732	8.968685e-06	2.297538e-04	4.064556e-05	1.508125e-05
2.435733	8.642906e-06	2.277103e-04	4.039728e-05	1.568052e-05
2.436733	8.314619e-06	2.255866e-04	4.014225e-05	1.629925e-05
2.437734	7.985058e-06	2.233867e-04	3.988116e-05	1.693587e-05
2.438734	7.655454e-06	2.211147e-04	3.961470e-05	1.758887e-05
2.439735	7.327042e-06	2.187749e-04	3.934355e-05	1.825669e-05
2.440735	7.001054e-06	2.163712e-04	3.906840e-05	1.893779e-05
2.441736	6.678723e-06	2.139079e-04	3.878994e-05	1.963063e-05
2.442736	6.361282e-06	2.113889e-04	3.850886e-05	2.033366e-05
2.443737	6.049963e-06	2.088185e-04	3.822585e-05	2.104535e-05
2.444737	5.746000e-06	2.062007e-04	3.794158e-05	2.176414e-05
2.445738	5.450626e-06	2.035396e-04	3.765676e-05	2.248851e-05
2.446738	5.165074e-06	2.008393e-04	3.737206e-05	2.321690e-05
2.447739	4.890576e-06	1.981040e-04	3.708818e-05	2.394778e-05
2.448739	4.628365e-06	1.953378e-04	3.680579e-05	2.467960e-05
2.449740	4.379675e-06	1.925447e-04	3.652560e-05	2.541082e-05
2.450741	4.145738e-06	1.897289e-04	3.624829e-05	2.613989e-05
2.451741	3.927787e-06	1.868945e-04	3.597453e-05	2.686528e-05
2.452742	3.727056e-06	1.840455e-04	3.570503e-05	2.758544e-05
2.453742	3.544776e-06	1.811862e-04	3.544047e-05	2.829882e-05
2.454743	3.382182e-06	1.783205e-04	3.518154e-05	2.900390e-05
2.455743	3.240505e-06	1.754527e-04	3.492892e-05	2.969912e-05
2.456744	3.120980e-06	1.725868e-04	3.468330e-05	3.038294e-05
2.457744	3.024838e-06	1.697269e-04	3.444537e-05	3.105382e-05
2.458745	2.953312e-06	1.668772e-04	3.421582e-05	3.171022e-05
2.459745	2.907637e-06	1.640417e-04	3.399533e-05	3.235059e-05
2.460746	2.889044e-06	1.612246e-04	3.378459e-05	3.297340e-05
2.461746	2.898766e-06	1.584299e-04	3.358429e-05	3.357709e-05
2.462747	2.938037e-06	1.556618e-04	3.339512e-05	3.416013e-05
2.463747	3.008089e-06	1.529244e-04	3.321777e-05	3.472098e-05
2.464748	3.110156e-06	1.502218e-04	3.305291e-05	3.525809e-05
2.465748	3.245469e-06	1.475580e-04	3.290124e-05	3.576992e-05
2.466749	3.415263e-06	1.449373e-04	3.276345e-05	3.625492e-05
2.467749	3.620770e-06	1.423637e-04	3.264023e-05	3.671157e-05
2.468750	3.863223e-06	1.398413e-04	3.253225e-05	3.713830e-05
2.469751	4.143854e-06	1.373742e-04	3.244022e-05	3.753358e-05
2.470751	4.463898e-06	1.349666e-04	3.236481e-05	3.789588e-05
2.471752	4.824586e-06	1.326225e-04	3.230671e-05	3.822364e-05
2.472752	5.227152e-06	1.303461e-04	3.226662e-05	3.851532e-05
2.473753	5.672829e-06	1.281414e-04	3.224521e-05	3.876938e-05
2.474753	6.162843e-06	1.260126e-04	3.224318e-05	3.898428e-05
2.475754	6.697431e-06	1.239620e-04	3.226086e-05	3.915925e-05
2.476754	7.274677e-06	1.219879e-04	3.229783e-05	3.929518e-05
2.477755	7.892387e-06	1.200882e-04	3.235357e-05	3.939315e-05
2.478755	8.548366e-06	1.182609e-04	3.242756e-05	3.945427e-05
2.479756	9.240421e-06	1.165038e-04	3.251928e-05	3.947962e-05
2.480756	9.966355e-06	1.148147e-04	3.262821e-05	3.947033e-05
2.481757	1.072398e-05	1.131917e-04	3.275383e-05	3.942746e-05
2.482757	1.151109e-05	1.116325e-04	3.289563e-05	3.935214e-05
2.483758	1.232549e-05	1.101351e-04	3.305307e-05	3.924545e-05
2.484758	1.316500e-05	1.086973e-04	3.322565e-05	3.910849e-05
2.485759	1.402742e-05	1.073170e-04	3.341284e-05	3.894236e-05
2.486759	1.491054e-05	1.059921e-04	3.361413e-05	3.874815e-05
2.487760	1.581219e-05	1.047205e-04	3.382898e-05	3.852697e-05
2.488761	1.673016e-05	1.035001e-04	3.405690e-05	3.827991e-05
2.489761	1.766225e-05	1.023287e-04	3.429734e-05	3.800808e-05
2.490762	1.860628e-05	1.012043e-04	3.454980e-05	3.771255e-05
2.491762	1.956005e-05	1.001248e-04	3.481376e-05	3.739445e-05
2.492763	2.052137e-05	9.908792e-05	3.508869e-05	3.705485e-05
2.493763	2.148803e-05	9.809168e-05	3.537407e-05	3.669487e-05
2.494764	2.245785e-05	9.713392e-05	3.566939e-05	3.631559e-05
2.495764	2.342862e-05	9.621253e-05	3.597413e-05	3.591812e-05
2.496765	2.439817e-05	9.532540e-05	3.628777e-05	3.550355e-05
2.497765	2.536428e-05	9.447042e-05	3.660978e-05	3.507298e-05
2.498766	2.632477e-05	9.364546e-05	3.693965e-05	3.462751e-05
2.499766	2.727745e-05	9.284842e-05	3.727685e-05	3.416824e-05
2.500767	2.822011e-05	9.207719e-05	3.762088e-05	3.369626e-05
2.501767	2.915056e-05	9.132963e-05	3.797120e-05	3.321267e-05
2.502768	3.006661e-05	9.060365e-05	3.832730e-05	3.271857e-05
2.503768	3.096607e-05	8.989712e-05	3.868866e-05	3.221506e-05
2.504769	3.184673e-05	8.920794e-05	3.905476e-05	3.170323e-05
2.505769	3.270641e-05	8.853398e-05	3.942508e-05	3.118418e-05
2.506770	3.354290e-05	8.787314e-05	3.979910e-05	3.065901e-05
2.507770	3.435402e-05	8.722329e-05	4.017631e-05	3.012882e-05
2.508771	3.513757e-05	8.658232e-05	4.055617e-05	2.959470e-05
2.509772	3.589136e-05	8.594813e-05	4.093817e-05	2.905775e-05
2.510772	3.661318e-05	8.531859e-05	4.132179e-05	2.851908e-05
2.511773	3.730085e-05	8.469158e-05	4.170652e-05	2.797977e-05
2.512773	3.795218e-05	8.406500e-05	4.209183e-05	2.744092e-05
2.513774	3.856496e-05	8.343673e-05	4.247720e-05	2.690364e-05
2.514774	3.913700e-05	8.280466e-05	4.286211e-05	2.636902e-05
2.515775	3.966611e-05	8.216666e-05	4.324605e-05	2.583816e-05
2.516775	4.015009e-05	8.152064e-05	4.362849e-05	2.531215e-05
2.517776	4.058675e-05	8.086446e-05	4.400892e-05	2.479210e-05
2.518776	4.097390e-05	8.019602e-05	4.438681e-05	2.427910e-05
2.519777	4.130933e-05	7.951320e-05	4.476164e-05	2.377424e-05
2.520777	4.159086e-05	7.881388e-05	4.513290e-05	2.327863e-05
2.521778	4.181628e-05	7.809596e-05	4.550007e-05	2.279337e-05
2.522778	4.198341e-05	7.735732e-05	4.586262e-05	2.231955e-05
2.523779	4.209005e-05	7.659584e-05	4.622003e-05	2.185826e-05
2.524779	4.213402e-05	7.580942e-05	4.657180e-05	2.141061e-05
2.525780	4.211503e-05	7.499706e-05	4.691763e-05	2.097735e-05
2.526780	4.203654e-05	7.416000e-05	4.725770e-05	2.055853e-05
2.527781	4.190251e-05	7.329974e-05	4.759227e-05	2.015414e-05
2.528782	4.171685e-05	7.241778e-05	4.792157e-05	1.976417e-05
2.529782	4.148351e-05	7.151564e-05	4.824584e-05	1.938858e-05
2.530783	4.120642e-05	7.059482e-05	4.856532e-05	1.902736e-05
2.531783	4.088951e-05	6.965681e-05	4.888025e-05	1.868049e-05
2.532784	4.053672e-05	6.870313e-05	4.919088e-05	1.834795e-05
2.533784	4.015198e-05	6.773527e-05	4.949744e-05	1.802972e-05
2.534785	3.973923e-05	6.675474e-05	4.980018e-05	1.772578e-05
2.535785	3.930239e-05	6.576305e-05	5.009934e-05	1.743611e-05
2.536786	3.884541e-05	6.476170e-05	5.039515e-05	1.716069e-05
2.537786	3.837221e-05	6.375219e-05	5.068786e-05	1.689950e-05
2.538787	3.788674e-05	6.273602e-05	5.097770e-05	1.665253e-05
2.539787	3.739291e-05	6.171471e-05	5.126493e-05	1.641974e-05
2.540788	3.689468e-05	6.068975e-05	5.154978e-05	1.620113e-05
2.541788	3.639597e-05	5.966265e-05	5.183249e-05	1.599667e-05
2.542789	3.590071e-05	5.863492e-05	5.211330e-05	1.580634e-05
2.543789	3.541285e-05	5.760805e-05	5.239245e-05	1.563012e-05
2.544790	3.493630e-05	5.658355e-05	5.267019e-05	1.546800e-05
2.545790	3.447502e-05	5.556292e-05	5.294676e-05	1.531995e-05
2.546791	3.403293e-05	5.454768e-05	5.322238e-05	1.518595e-05
2.547791	3.361396e-05	5.353931e-05	5.349732e-05	1.506598e-05
2.548792	3.322205e-05	5.253934e-05	5.377180e-05	1.496003e-05
2.549793	3.286114e-05	5.154925e-05	5.404607e-05	1.486807e-05
2.550793	3.253515e-05	5.057056e-05	5.432037e-05	1.479009e-05
2.551794	3.224802e-05	4.960476e-05	5.459494e-05	1.472606e-05
2.552794	3.200369e-05	4.865337e-05	5.487002e-05	1.467596e-05
2.553795	3.180609e-05	4.771789e-05	5.514585e-05	1.463978e-05
2.554795	3.165915e-05	4.679981e-05	5.542267e-05	1.461749e-05
2.555796	3.156681e-05	4.590065e-05	5.570073e-05	1.460908e-05
2.556796	3.153299e-05	4.502191e-05	5.598026e-05	1.461453e-05
2.557797	3.156165e-05	4.416509e-05	5.626151e-05	1.463381e-05
2.558797	3.165670e-05	4.333170e-05	5.654471e-05	1.466690e-05
2.559798	3.182208e-05	4.252323e-05	5.683010e-05	1.471379e-05
2.560798	3.206173e-05	4.174121e-05	5.711794e-05	1.477446e-05
2.561799	3.237957e-05	4.098711e-05	5.740845e-05	1.484888e-05
2.562799	3.277956e-05	4.026247e-05	5.770188e-05	1.493704e-05
2.563800	3.326561e-05	3.956876e-05	5.799847e-05	1.503892e-05
2.564800	3.384166e-05	3.890751e-05	5.829847e-05	1.515450e-05
2.565801	3.451165e-05	3.828021e-05	5.860210e-05	1.528375e-05
2.566801	3.527950e-05	3.768837e-05	5.890962e-05	1.542666e-05
2.567802	3.614916e-05	3.713349e-05	5.922126e-05	1.558320e-05
2.568803	3.712456e-05	3.661708e-05	5.953726e-05	1.575337e-05
2.569803	3.820963e-05	3.614064e-05	5.985787e-05	1.593713e-05
2.570804	3.940831e-05	3.570567e-05	6.018332e-05	1.613447e-05
2.571804	4.072452e-05	3.531368e-05	6.051386e-05	1.634537e-05
2.572805	4.216220e-05	3.496617e-05	6.084973e-05	1.656981e-05
2.573805	4.372530e-05	3.466465e-05	6.119116e-05	1.680777e-05
2.574806	4.541770e-05	3.441060e-05	6.153841e-05	1.705922e-05
2.575806	4.723995e-05	3.420452e-05	6.189144e-05	1.732396e-05
2.576807	4.918631e-05	3.404498e-05	6.224977e-05	1.760141e-05
2.577807	5.125037e-05	3.393038e-05	6.261286e-05	1.789096e-05
2.578808	5.342570e-05	3.385907e-05	6.298016e-05	1.819201e-05
2.579808	5.570590e-05	3.382946e-05	6.335112e-05	1.850393e-05
2.580809	5.808455e-05	3.383992e-05	6.372522e-05	1.882611e-05
2.581809	6.055522e-05	3.388883e-05	6.410189e-05	1.915796e-05
2.582810	6.311150e-05	3.397456e-05	6.448061e-05	1.949884e-05
2.583810	6.574698e-05	3.409551e-05	6.486082e-05	1.984817e-05
2.584811	6.845524e-05	3.425006e-05	6.524198e-05	2.020531e-05
2.585811	7.122986e-05	3.443657e-05	6.562355e-05	2.056967e-05
2.586812	7.406442e-05	3.465344e-05	6.600498e-05	2.094063e-05
2.587813	7.695250e-05	3.489905e-05	6.638574e-05	2.131758e-05
2.588813	7.988770e-05	3.517177e-05	6.676528e-05	2.169991e-05
2.589814	8.286358e-05	3.546998e-05	6.714305e-05	2.208700e-05
2.590814	8.587375e-05	3.579208e-05	6.751851e-05	2.247825e-05
2.591815	8.891177e-05	3.613643e-05	6.789112e-05	2.287305e-05
2.592815	9.197123e-05	3.650142e-05	6.826034e-05	2.327079e-05
2.593816	9.504571e-05	3.688542e-05	6.862562e-05	2.367084e-05
2.594816	9.812880e-05	3.728683e-05	6.898642e-05	2.407261e-05
2.595817	1.012141e-04	3.770402e-05	6.934219e-05	2.447548e-05
2.596817	1.042951e-04	3.813537e-05	6.969240e-05	2.487884e-05
2.597818	1.073655e-04	3.857926e-05	7.003650e-05	2.528208e-05
2.598818	1.104189e-04	3.903408e-05	7.037394e-05	2.568459e-05
2.599819	1.134488e-04	3.949820e-05	7.070418e-05	2.608575e-05
2.600819	1.164487e-04	3.997000e-05	7.102668e-05	2.648496e-05
2.601820	1.194124e-04	4.044786e-05	7.134090e-05	2.688161e-05
2.602820	1.223333e-04	4.093018e-05	7.164629e-05	2.727508e-05
2.603821	1.252051e-04	4.141532e-05	7.194230e-05	2.766476e-05
2.604821	1.280213e-04	4.190166e-05	7.222841e-05	2.805004e-05
2.605822	1.307756e-04	4.238760e-05	7.250405e-05	2.843032e-05
2.606822	1.334614e-04	4.287150e-05	7.276870e-05	2.880497e-05
2.607823	1.360724e-04	4.335176e-05	7.302180e-05	2.917340e-05
2.608824	1.386022e-04	4.382674e-05	7.326281e-05	2.953498e-05
2.609824	1.410444e-04	4.429483e-05	7.349119e-05	2.988910e-05
2.610825	1.433925e-04	4.475442e-05	7.370640e-05	3.023517e-05
2.611825	1.456401e-04	4.520388e-05	7.390789e-05	3.057255e-05
2.612826	1.477808e-04	4.564159e-05	7.409511e-05	3.090065e-05
2.613826	1.498081e-04	4.606593e-05	7.426754e-05	3.121885e-05
2.614827	1.517158e-04	4.647529e-05	7.442461e-05	3.152655e-05
2.615827	1.534973e-04	4.686804e-05	7.456579e-05	3.182312e-05
2.616828	1.551462e-04	4.724257e-05	7.469054e-05	3.210796e-05
2.617828	1.566562e-04	4.759726e-05	7.479832e-05	3.238046e-05
2.618829	1.580207e-04	4.793049e-05	7.488857e-05	3.264001e-05
2.619829	1.592334e-04	4.824063e-05	7.496075e-05	3.288599e-05
2.620830	1.602879e-04	4.852607e-05	7.501433e-05	3.311779e-05
2.621830	1.611777e-04	4.878519e-05	7.504876e-05	3.333481e-05
2.622831	1.618965e-04	4.901637e-05	7.506349e-05	3.353644e-05
2.623831	1.624378e-04	4.921800e-05	7.505798e-05	3.372205e-05
2.624832	1.627952e-04	4.938845e-05	7.503170e-05	3.389105e-05
2.625832	1.629670e-04	4.952696e-05	7.498441e-05	3.404327e-05
2.626833	1.629592e-04	4.963416e-05	7.491642e-05	3.417929e-05
2.627834	1.627788e-04	4.971085e-05	7.482810e-05	3.429980e-05
2.628834	1.624326e-04	4.975783e-05	7.471979e-05	3.440544e-05
2.629835	1.619276e-04	4.977588e-05	7.459187e-05	3.449690e-05
2.630835	1.612706e-04	4.976580e-05	7.444469e-05	3.457484e-05
2.631836	1.604685e-04	4.972838e-05	7.427862e-05	3.463992e-05
2.632836	1.595283e-04	4.966440e-05	7.409401e-05	3.469281e-05
2.633837	1.584568e-04	4.957467e-05	7.389123e-05	3.473418e-05
2.634837	1.572608e-04	4.945998e-05	7.367063e-05	3.476469e-05
2.635838	1.559474e-04	4.932111e-05	7.343259e-05	3.478502e-05
2.636838	1.545234e-04	4.915886e-05	7.317745e-05	3.479583e-05
2.637839	1.529956e-04	4.897401e-05	7.290558e-05	3.479778e-05
2.638839	1.513710e-04	4.876738e-05	7.261734e-05	3.479155e-05
2.639840	1.496565e-04	4.853973e-05	7.231310e-05	3.477780e-05
2.640840	1.478590e-04	4.829187e-05	7.199321e-05	3.475719e-05
2.641841	1.459853e-04	4.802459e-05	7.165803e-05	3.473040e-05
2.642841	1.440424e-04	4.773868e-05	7.130792e-05	3.469809e-05
2.643842	1.420371e-04	4.743493e-05	7.094325e-05	3.466093e-05
2.644842	1.399764e-04	4.711413e-05	7.056438e-05	3.461959e-05
2.645843	1.378671e-04	4.677708e-05	7.017166e-05	3.457472e-05
2.646843	1.357161e-04	4.642456e-05	6.976546e-05	3.452701e-05
2.647844	1.335303e-04	4.605738e-05	6.934614e-05	3.447711e-05
2.648845	1.313167e-04	4.567632e-05	6.891406e-05	3.442570e-05
2.649845	1.290820e-04	4.528217e-05	6.846957e-05	3.437343e-05
2.650846	1.268333e-04	4.487572e-05	6.801305e-05	3.432099e-05
2.651846	1.245773e-04	4.445778e-05	6.754485e-05	3.426903e-05
2.652847	1.223210e-04	4.402912e-05	6.706533e-05	3.421822e-05
2.653847	1.200714e-04	4.359054e-05	6.657486e-05	3.416922e-05
2.654848	1.178351e-04	4.314284e-05	6.607379e-05	3.412272e-05
2.655848	1.156193e-04	4.268680e-05	6.556249e-05	3.407936e-05
2.656849	1.134307e-04	4.222322e-05	6.504131e-05	3.403983e-05
2.657849	1.112762e-04	4.175289e-05	6.451062e-05	3.400478e-05
2.658850	1.091628e-04	4.127659e-05	6.397077e-05	3.397488e-05
2.659850	1.070973e-04	4.079513e-05	6.342214e-05	3.395080e-05
2.660851	1.050867e-04	4.030930e-05	6.286507e-05	3.393322e-05
2.661851	1.031378e-04	3.981988e-05	6.229993e-05	3.392278e-05
2.662852	1.012575e-04	3.932767e-05	6.172709e-05	3.392017e-05
2.663852	9.945272e-05	3.883346e-05	6.114690e-05	3.392604e-05
2.664853	9.773035e-05	3.833804e-05	6.055972e-05	3.394107e-05
2.665853	9.609727e-05	3.784221e-05	5.996591e-05	3.396593e-05
2.666854	9.456037e-05	3.734675e-05	5.936584e-05	3.400127e-05
2.667855	9.312657e-05	3.685246e-05	5.875986e-05	3.404777e-05
2.668855	9.180274e-05	3.636013e-05	5.814834e-05	3.410609e-05
2.669856	9.059578e-05	3.587055e-05	5.753164e-05	3.417690e-05
2.670856	8.951259e-05	3.538452e-05	5.691011e-05	3.426087e-05
2.671857	8.856005e-05	3.490282e-05	5.628413e-05	3.435866e-05
2.672857	8.774506e-05	3.442625e-05	5.565404e-05	3.447094e-05
2.673858	8.707452e-05	3.395560e-05	5.502022e-05	3.459838e-05
2.674858	8.655525e-05	3.349166e-05	5.438302e-05	3.474164e-05
2.675859	8.618974e-05	3.303498e-05	5.374321e-05	3.490101e-05
2.676859	8.597349e-05	3.258576e-05	5.310220e-05	3.507615e-05
2.677860	8.590136e-05	3.214415e-05	5.246146e-05	3.526668e-05
2.678860	8.596823e-05	3.171030e-05	5.182244e-05	3.547223e-05
2.679861	8.616897e-05	3.128436e-05	5.118661e-05	3.569241e-05
2.680861	8.649843e-05	3.086650e-05	5.055544e-05	3.592684e-05
2.681862	8.695148e-05	3.045686e-05	4.993038e-05	3.617514e-05
2.682862	8.752300e-05	3.005560e-05	4.931292e-05	3.643693e-05
2.683863	8.820785e-05	2.966287e-05	4.870450e-05	3.671183e-05
2.684863	8.900089e-05	2.927883e-05	4.810659e-05	3.699945e-05
2.685864	8.989700e-05	2.890363e-05	4.752066e-05	3.729942e-05
2.686864	9.089104e-05	2.853742e-05	4.694817e-05	3.761135e-05
2.687865	9.197787e-05	2.818037e-05	4.639058e-05	3.793486e-05
2.688866	9.315238e-05	2.783261e-05	4.584936e-05	3.826957e-05
2.689866	9.440941e-05	2.749432e-05	4.532598e-05	3.861510e-05
2.690867	9.574384e-05	2.716564e-05	4.482190e-05	3.897107e-05
2.691867	9.715054e-05	2.684672e-05	4.433857e-05	3.933709e-05
2.692868	9.862438e-05	2.653772e-05	4.387748e-05	3.971279e-05
2.693868	1.001602e-04	2.623879e-05	4.344007e-05	4.009778e-05
2.694869	1.017529e-04	2.595010e-05	4.302782e-05	4.049169e-05
2.695869	1.033973e-04	2.567178e-05	4.264219e-05	4.089413e-05
2.696870	1.050884e-04	2.540400e-05	4.228464e-05	4.130471e-05
2.697870	1.068209e-04	2.514691e-05	4.195664e-05	4.172307e-05
2.698871	1.085897e-04	2.490067e-05	4.165965e-05	4.214881e-05
2.699871	1.103898e-04	2.466542e-05	4.139513e-05	4.258156e-05
2.700872	1.122159e-04	2.444133e-05	4.116456e-05	4.302093e-05
2.701872	1.140630e-04	2.422854e-05	4.096939e-05	4.346655e-05
2.702873	1.159258e-04	2.402721e-05	4.081109e-05	4.391802e-05
2.703873	1.177993e-04	2.383750e-05	4.069112e-05	4.437498e-05
2.704874	1.196784e-04	2.365955e-05	4.061095e-05	4.483704e-05
2.705874	1.215579e-04	2.349353e-05	4.057204e-05	4.530381e-05
2.706875	1.234326e-04	2.333959e-05	4.057586e-05	4.577492e-05
2.707876	1.252975e-04	2.319788e-05	4.062387e-05	4.624999e-05
2.708876	1.271474e-04	2.306855e-05	4.071753e-05	4.672863e-05
2.709877	1.289772e-04	2.295176e-05	4.085831e-05	4.721047e-05
2.710877	1.307817e-04	2.284767e-05	4.104767e-05	4.769511e-05
2.711878	1.325558e-04	2.275642e-05	4.128707e-05	4.818218e-05
2.712878	1.342944e-04	2.267817e-05	4.157799e-05	4.867131e-05
2.713879	1.359923e-04	2.261308e-05	4.192189e-05	4.916210e-05
2.714879	1.376445e-04	2.256130e-05	4.232022e-05	4.965417e-05
2.715880	1.392457e-04	2.252298e-05	4.277446e-05	5.014715e-05
2.716880	1.407909e-04	2.249828e-05	4.328606e-05	5.064066e-05
2.717881	1.422748e-04	2.248736e-05	4.385650e-05	5.113430e-05
2.718881	1.436925e-04	2.249036e-05	4.448724e-05	5.162771e-05
2.719882	1.450387e-04	2.250744e-05	4.517973e-05	5.212050e-05
2.720882	1.463083e-04	2.253875e-05	4.593545e-05	5.261228e-05
2.721883	1.474962e-04	2.258445e-05	4.675586e-05	5.310268e-05
2.722883	1.485972e-04	2.264470e-05	4.764242e-05	5.359132e-05
2.723884	1.496063e-04	2.271964e-05	4.859660e-05	5.407781e-05
2.724884	1.505183e-04	2.280943e-05	4.961984e-05	5.456177e-05
2.725885	1.513313e-04	2.291402e-05	5.071206e-05	5.504290e-05
2.726886	1.520480e-04	2.303309e-05	5.187097e-05	5.552101e-05
2.727886	1.526716e-04	2.316627e-05	5.309405e-05	5.599591e-05
2.728887	1.532052e-04	2.331322e-05	5.437882e-05	5.646741e-05
2.729887	1.536519e-04	2.347358e-05	5.572278e-05	5.693533e-05
2.730888	1.540149e-04	2.364699e-05	5.712344e-05	5.739949e-05
2.731888	1.542974e-04	2.383310e-05	5.857828e-05	5.785970e-05
2.732889	1.545023e-04	2.403155e-05	6.008483e-05	5.831578e-05
2.733889	1.546329e-04	2.424199e-05	6.164058e-05	5.876754e-05
2.734890	1.546924e-04	2.446407e-05	6.324303e-05	5.921480e-05
2.735890	1.546837e-04	2.469742e-05	6.488969e-05	5.965737e-05
2.736891	1.546102e-04	2.494169e-05	6.657806e-05	6.009507e-05
2.737891	1.544748e-04	2.519654e-05	6.830565e-05	6.052772e-05
2.738892	1.542808e-04	2.546160e-05	7.006995e-05	6.095512e-05
2.739892	1.540313e-04	2.573651e-05	7.186848e-05	6.137709e-05
2.740893	1.537293e-04	2.602093e-05	7.369873e-05	6.179346e-05
2.741893	1.533781e-04	2.631450e-05	7.555820e-05	6.220403e-05
2.742894	1.529807e-04	2.661686e-05	7.744441e-05	6.260862e-05
2.743894	1.525404e-04	2.692766e-05	7.935486e-05	6.300705e-05
2.744895	1.520602e-04	2.724654e-05	8.128704e-05	6.339913e-05
2.745895	1.515432e-04	2.757315e-05	8.323846e-05	6.378467e-05
2.746896	1.509927e-04	2.790713e-05	8.520663e-05	6.416350e-05
2.747897	1.504116e-04	2.824814e-05	8.718904e-05	6.453542e-05
2.748897	1.498033e-04	2.859580e-05	8.918321e-05	6.490026e-05
2.749898	1.491707e-04	2.894977e-05	9.118663e-05	6.525782e-05
2.750898	1.485171e-04	2.930970e-05	9.319680e-05	6.560793e-05
2.751899	1.478455e-04	2.967522e-05	9.521124e-05	6.595039e-05
2.752899	1.471591e-04	3.004599e-05	9.722744e-05	6.628503e-05
2.753900	1.464611e-04	3.042164e-05	9.924291e-05	6.661166e-05
2.754900	1.457545e-04	3.080183e-05	1.012552e-04	6.693009e-05
2.755901	1.450425e-04	3.118619e-05	1.032617e-04	6.724014e-05
2.756901	1.443283e-04	3.157438e-05	1.052600e-04	6.754163e-05
2.757902	1.436149e-04	3.196604e-05	1.072475e-04	6.783437e-05
2.758902	1.429055e-04	3.236080e-05	1.092219e-04	6.811818e-05
2.759903	1.422032e-04	3.275833e-05	1.111805e-04	6.839286e-05
2.760903	1.415112e-04	3.315826e-05	1.131210e-04	6.865824e-05
2.761904	1.408325e-04	3.356023e-05	1.150407e-04	6.891414e-05
2.762904	1.401704e-04	3.396390e-05	1.169372e-04	6.916036e-05
2.763905	1.395280e-04	3.436891e-05	1.188080e-04	6.939672e-05
2.764905	1.389083e-04	3.477490e-05	1.206506e-04	6.962305e-05
2.765906	1.383146e-04	3.518152e-05	1.224626e-04	6.983914e-05
2.766907	1.377499e-04	3.558841e-05	1.242413e-04	7.004483e-05
2.767907	1.372174e-04	3.599521e-05	1.259844e-04	7.023991e-05
2.768908	1.367203e-04	3.640158e-05	1.276892e-04	7.042422e-05
2.769908	1.362615e-04	3.680716e-05	1.293534e-04	7.059757e-05
2.770909	1.358444e-04	3.721159e-05	1.309744e-04	7.075976e-05
2.771909	1.354720e-04	3.761452e-05	1.325498e-04	7.091062e-05
2.772910	1.351475e-04	3.801559e-05	1.340770e-04	7.104996e-05
2.773910	1.348739e-04	3.841445e-05	1.355535e-04	7.117759e-05
2.774911	1.346544e-04	3.881074e-05	1.369768e-04	7.129334e-05
2.775911	1.344905e-04	3.920416e-05	1.383460e-04	7.139714e-05
2.776912	1.343813e-04	3.959450e-05	1.396619e-04	7.148908e-05
2.777912	1.343260e-04	3.998153e-05	1.409255e-04	7.156927e-05
2.778913	1.343235e-04	4.036504e-05	1.421380e-04	7.163783e-05
2.779913	1.343728e-04	4.074481e-05	1.433002e-04	7.169485e-05
2.780914	1.344731e-04	4.112062e-05	1.444134e-04	7.174046e-05
2.781914	1.346234e-04	4.149225e-05	1.454785e-04	7.177475e-05
2.782915	1.348226e-04	4.185950e-05	1.464966e-04	7.179783e-05
2.783915	1.350699e-04	4.222213e-05	1.474687e-04	7.180982e-05
2.784916	1.353643e-04	4.257994e-05	1.483959e-04	7.181082e-05
2.785916	1.357048e-04	4.293271e-05	1.492792e-04	7.180093e-05
2.786917	1.360904e-04	4.328021e-05	1.501196e-04	7.178028e-05
2.787918	1.365202e-04	4.362224e-05	1.509183e-04	7.174896e-05
2.788918	1.369933e-04	4.395857e-05	1.516762e-04	7.170708e-05
2.789919	1.375087e-04	4.428899e-05	1.523944e-04	7.165476e-05
2.790919	1.380653e-04	4.461328e-05	1.530740e-04	7.159210e-05
2.791920	1.386623e-04	4.493122e-05	1.537160e-04	7.151921e-05
2.792920	1.392987e-04	4.524260e-05	1.543214e-04	7.143620e-05
2.793921	1.399735e-04	4.554720e-05	1.548913e-04	7.134317e-05
2.794921	1.406858e-04	4.584480e-05	1.554267e-04	7.124024e-05
2.795922	1.414347e-04	4.613518e-05	1.559287e-04	7.112751e-05
2.796922	1.422190e-04	4.641813e-05	1.563983e-04	7.100509e-05
2.797923	1.430379e-04	4.669343e-05	1.568366e-04	7.087309e-05
2.798923	1.438905e-04	4.696086e-05	1.572446e-04	7.073161e-05
2.799924	1.447758e-04	4.722021e-05	1.576233e-04	7.058078e-05
2.800924	1.456927e-04	4.747125e-05	1.579739e-04	7.042069e-05
2.801925	1.466404e-04	4.771378e-05	1.582973e-04	7.025145e-05
2.802925	1.476178e-04	4.794757e-05	1.585946e-04	7.007317e-05
2.803926	1.486241e-04	4.817240e-05	1.588668e-04	6.988596e-05
2.804926	1.496583e-04	4.838807e-05	1.591150e-04	6.968993e-05
2.805927	1.507193e-04	4.859434e-05	1.593403e-04	6.948519e-05
2.806928	1.518063e-04	4.879102e-05	1.595436e-04	6.927184e-05
2.807928	1.529183e-04	4.897786e-05	1.597261e-04	6.904999e-05
2.808929	1.540542e-04	4.915467e-05	1.598887e-04	6.881975e-05
2.809929	1.552133e-04	4.932123e-05	1.600326e-04	6.858124e-05
2.810930	1.563944e-04	4.947730e-05	1.601587e-04	6.833455e-05
2.811930	1.575967e-04	4.962269e-05	1.602681e-04	6.807980e-05
2.812931	1.588191e-04	4.975717e-05	1.603619e-04	6.781709e-05
2.813931	1.600608e-04	4.988052e-05	1.604410e-04	6.754653e-05
2.814932	1.613207e-04	4.999253e-05	1.605066e-04	6.726824e-05
2.815932	1.625979e-04	5.009298e-05	1.605597e-04	6.698231e-05
2.816933	1.638914e-04	5.018165e-05	1.606014e-04	6.668886e-05
2.817933	1.652004e-04	5.025832e-05	1.606326e-04	6.638800e-05
2.818934	1.665237e-04	5.032278e-05	1.606544e-04	6.607984e-05
2.819934	1.678604e-04	5.037482e-05	1.606679e-04	6.576447e-05
2.820935	1.692097e-04	5.041421e-05	1.606742e-04	6.544202e-05
2.821935	1.705705e-04	5.044073e-05	1.606742e-04	6.511258e-05
2.822936	1.719418e-04	5.045417e-05	1.606690e-04	6.477628e-05
2.823936	1.733228e-04	5.045432e-05	1.606596e-04	6.443321e-05
2.824937	1.747124e-04	5.044095e-05	1.606472e-04	6.408349e-05
2.825938	1.761098e-04	5.041417e-05	1.606320e-04	6.372759e-05
2.826938	1.775146e-04	5.037443e-05	1.606136e-04	6.336642e-05
2.827939	1.789261e-04	5.032223e-05	1.605915e-04	6.300093e-05
2.828939	1.803438e-04	5.025807e-05	1.605652e-04	6.263206e-05
2.829940	1.817672e-04	5.018244e-05	1.605342e-04	6.226076e-05
2.830940	1.831957e-04	5.009583e-05	1.604979e-04	6.188797e-05
2.831941	1.846288e-04	4.999874e-05	1.604559e-04	6.151463e-05
2.832941	1.860659e-04	4.989167e-05	1.604076e-04	6.114169e-05
2.833942	1.875064e-04	4.977511e-05	1.603525e-04	6.077010e-05
2.834942	1.889499e-04	4.964955e-05	1.602901e-04	6.040080e-05
2.835943	1.903957e-04	4.951549e-05	1.602198e-04	6.003473e-05
2.836943	1.918434e-04	4.937342e-05	1.601413e-04	5.967284e-05
2.837944	1.932923e-04	4.922384e-05	1.600539e-04	5.931608e-05
2.838944	1.947420e-04	4.906725e-05	1.599571e-04	5.896538e-05
2.839945	1.961919e-04	4.890413e-05	1.598505e-04	5.862170e-05
2.840945	1.976414e-04	4.873498e-05	1.597335e-04	5.828598e-05
2.841946	1.990900e-04	4.856030e-05	1.596056e-04	5.795916e-05
2.842946	2.005372e-04	4.838057e-05	1.594662e-04	5.764218e-05
2.843947	2.019823e-04	4.819631e-05	1.593150e-04	5.733600e-05
2.844947	2.034249e-04	4.800799e-05	1.591513e-04	5.704156e-05
2.845948	2.048644e-04	4.781612e-05	1.589746e-04	5.675980e-05
2.846949	2.063002e-04	4.762119e-05	1.587845e-04	5.649166e-05
2.847949	2.077319e-04	4.742370e-05	1.585804e-04	5.623810e-05
2.848950	2.091588e-04	4.722413e-05	1.583617e-04	5.600005e-05
2.849950	2.105804e-04	4.702299e-05	1.581281e-04	5.577846e-05
2.850951	2.119962e-04	4.682076e-05	1.578790e-04	5.557428e-05
2.851951	2.134056e-04	4.661795e-05	1.576138e-04	5.538845e-05
2.852952	2.148080e-04	4.641504e-05	1.573320e-04	5.522192e-05
2.853952	2.162030e-04	4.621254e-05	1.570332e-04	5.507562e-05
2.854953	2.175900e-04	4.601094e-05	1.567168e-04	5.495051e-05
2.855953	2.189684e-04	4.581072e-05	1.563823e-04	5.484753e-05
2.856954	2.203376e-04	4.561239e-05	1.560292e-04	5.476762e-05
2.857954	2.216972e-04	4.541645e-05	1.556569e-04	5.471173e-05
2.858955	2.230466e-04	4.522337e-05	1.552651e-04	5.468080e-05
2.859955	2.243852e-04	4.503367e-05	1.548530e-04	5.467578e-05
2.860956	2.257125e-04	4.484783e-05	1.544203e-04	5.469762e-05
2.861956	2.270280e-04	4.466636e-05	1.539665e-04	5.474725e-05
2.862957	2.283310e-04	4.448973e-05	1.534909e-04	5.482563e-05
2.863957	2.296211e-04	4.431846e-05	1.529931e-04	5.493369e-05
2.864958	2.308977e-04	4.415303e-05	1.524726e-04	5.507238e-05
2.865959	2.321603e-04	4.399393e-05	1.519289e-04	5.524265e-05
2.866959	2.334082e-04	4.384167e-05	1.513614e-04	5.544544e-05
2.867960	2.346410e-04	4.369674e-05	1.507696e-04	5.568170e-05
2.868960	2.358582e-04	4.355963e-05	1.501531e-04	5.595237e-05
2.869961	2.370591e-04	4.343083e-05	1.495113e-04	5.625840e-05
2.870961	2.382432e-04	4.331085e-05	1.488436e-04	5.660072e-05
2.871962	2.394099e-04	4.320017e-05	1.481497e-04	5.698029e-05
2.872962	2.405588e-04	4.309929e-05	1.474289e-04	5.739805e-05
2.873963	2.416893e-04	4.300871e-05	1.466808e-04	5.785494e-05
2.874963	2.428007e-04	4.292890e-05	1.459048e-04	5.835187e-05
2.875964	2.438921e-04	4.285984e-05	1.451010e-04	5.888829e-05
2.876964	2.449616e-04	4.280088e-05	1.442701e-04	5.946189e-05
2.877965	2.460074e-04	4.275134e-05	1.434128e-04	6.007025e-05
2.878965	2.470277e-04	4.271053e-05	1.425299e-04	6.071098e-05
2.879966	2.480206e-04	4.267779e-05	1.416221e-04	6.138166e-05
2.880966	2.489844e-04	4.265242e-05	1.406901e-04	6.207988e-05
2.881967	2.499172e-04	4.263375e-05	1.397347e-04	6.280323e-05
2.882967	2.508173e-04	4.262109e-05	1.387566e-04	6.354930e-05
2.883968	2.516828e-04	4.261376e-05	1.377565e-04	6.431567e-05
2.884968	2.525118e-04	4.261108e-05	1.367352e-04	6.509995e-05
2.885969	2.533026e-04	4.261238e-05	1.356935e-04	6.589971e-05
2.886970	2.540534e-04	4.261696e-05	1.346319e-04	6.671255e-05
2.887970	2.547623e-04	4.262415e-05	1.335514e-04	6.753605e-05
2.888971	2.554275e-04	4.263326e-05	1.324525e-04	6.836781e-05
2.889971	2.560472e-04	4.264362e-05	1.313361e-04	6.920542e-05
2.890972	2.566196e-04	4.265455e-05	1.302029e-04	7.004646e-05
2.891972	2.571429e-04	4.266535e-05	1.290536e-04	7.088853e-05
2.892973	2.576152e-04	4.267536e-05	1.278890e-04	7.172921e-05
2.893973	2.580347e-04	4.268389e-05	1.267097e-04	7.256609e-05
2.894974	2.583997e-04	4.269025e-05	1.255166e-04	7.339677e-05
2.895974	2.587083e-04	4.269377e-05	1.243104e-04	7.421883e-05
2.896975	2.589586e-04	4.269377e-05	1.230917e-04	7.502987e-05
2.897975	2.591489e-04	4.268956e-05	1.218614e-04	7.582746e-05
2.898976	2.592774e-04	4.268047e-05	1.206201e-04	7.660921e-05
2.899976	2.593422e-04	4.266581e-05	1.193687e-04	7.737270e-05
2.900977	2.593415e-04	4.264489e-05	1.181077e-04	7.811552e-05
2.901977	2.592735e-04	4.261705e-05	1.168381e-04	7.883526e-05
2.902978	2.591364e-04	4.258160e-05	1.155605e-04	7.952951e-05
2.903978	2.589284e-04	4.253785e-05	1.142756e-04	8.019585e-05
2.904979	2.586476e-04	4.248513e-05	1.129842e-04	8.083189e-05
2.905980	2.582922e-04	4.242275e-05	1.116870e-04	8.143521e-05
2.906980	2.578605e-04	4.235003e-05	1.103847e-04	8.200339e-05
2.907981	2.573506e-04	4.226630e-05	1.090782e-04	8.253403e-05
2.908981	2.567606e-04	4.217087e-05	1.077680e-04	8.302472e-05
2.909982	2.560888e-04	4.206305e-05	1.064550e-04	8.347305e-05
2.910982	2.553333e-04	4.194218e-05	1.051399e-04	8.387660e-05
2.911983	2.544924e-04	4.180756e-05	1.038235e-04	8.423296e-05
2.912983	2.535642e-04	4.165852e-05	1.025064e-04	8.453974e-05
2.913984	2.525469e-04	4.149437e-05	1.011893e-04	8.479450e-05
2.914984	2.514387e-04	4.131443e-05	9.987317e-05	8.499485e-05
2.915985	2.502377e-04	4.111802e-05	9.855856e-05	8.513838e-05
2.916985	2.489422e-04	4.090447e-05	9.724625e-05	8.522267e-05
2.917986	2.475503e-04	4.067308e-05	9.593698e-05	8.524531e-05
2.918986	2.460602e-04	4.042319e-05	9.463148e-05	8.520389e-05
2.919987	2.444702e-04	4.015409e-05	9.333049e-05	8.509601e-05
2.920987	2.427783e-04	3.986513e-05	9.203474e-05	8.491925e-05
2.921988	2.409827e-04	3.955560e-05	9.074498e-05	8.467120e-05
2.922988	2.390817e-04	3.922484e-05	8.946192e-05	8.434945e-05
2.923989	2.370735e-04	3.887216e-05	8.818632e-05	8.395159e-05
2.924989	2.349562e-04	3.849692e-05	8.691889e-05	8.347529e-05
2.925990	2.327307e-04	3.809951e-05	8.566010e-05	8.292055e-05
2.926991	2.304008e-04	3.768153e-05	8.441010e-05	8.228998e-05
2.927991	2.279702e-04	3.724461e-05	8.316903e-05	8.158634e-05
2.928992	2.254427e-04	3.679039e-05	8.193704e-05	8.081239e-05
2.929992	2.228223e-04	3.632053e-05	8.071427e-05	7.997090e-05
2.930993	2.201126e-04	3.583667e-05	7.950086e-05	7.906461e-05
2.931993	2.173177e-04	3.534045e-05	7.829695e-05	7.809630e-05
2.932994	2.144413e-04	3.483352e-05	7.710268e-05	7.706871e-05
2.933994	2.114872e-04	3.431753e-05	7.591820e-05	7.598461e-05
2.934995	2.084593e-04	3.379411e-05	7.474364e-05	7.484675e-05
2.935995	2.053614e-04	3.326492e-05	7.357916e-05	7.365791e-05
2.936996	2.021974e-04	3.273159e-05	7.242488e-05	7.242082e-05
2.937996	1.989710e-04	3.219578e-05	7.128096e-05	7.113826e-05
2.938997	1.956862e-04	3.165912e-05	7.014753e-05	6.981298e-05
2.939997	1.923467e-04	3.112327e-05	6.902474e-05	6.844775e-05
2.940998	1.889565e-04	3.058987e-05	6.791272e-05	6.704531e-05
2.941998	1.855193e-04	3.006056e-05	6.681162e-05	6.560844e-05
2.942999	1.820389e-04	2.953699e-05	6.572159e-05	6.413988e-05
2.943999	1.785192e-04	2.902080e-05	6.464276e-05	6.264240e-05
2.945000	1.749641e-04	2.851364e-05	6.357527e-05	6.111876e-05
2.946001	1.713774e-04	2.801715e-05	6.251927e-05	5.957172e-05
2.947001	1.677629e-04	2.753298e-05	6.147490e-05	5.800403e-05
2.948002	1.641244e-04	2.706277e-05	6.044230e-05	5.641845e-05
2.949002	1.604658e-04	2.660817e-05	5.942161e-05	5.481775e-05
2.950003	1.567909e-04	2.617083e-05	5.841298e-05	5.320468e-05
2.951003	1.531036e-04	2.575238e-05	5.741654e-05	5.158201e-05
2.952004	1.494077e-04	2.535447e-05	5.643244e-05	4.995248e-05
2.953004	1.457070e-04	2.497875e-05	5.546082e-05	4.831887e-05
2.954005	1.420053e-04	2.462686e-05	5.450182e-05	4.668392e-05
2.955005	1.383066e-04	2.430045e-05	5.355558e-05	4.505040e-05
2.956006	1.346146e-04	2.400116e-05	5.262225e-05	4.342107e-05
2.957006	1.309331e-04	2.373064e-05	5.170196e-05	4.179868e-05
2.958007	1.272661e-04	2.349053e-05	5.079486e-05	4.018600e-05
2.959007	1.236173e-04	2.328248e-05	4.990109e-05	3.858579e-05
2.960008	1.199906e-04	2.310813e-05	4.902080e-05	3.700079e-05
2.961008	1.163898e-04	2.296913e-05	4.815411e-05	3.543378e-05
2.962009	1.128187e-04	2.286712e-05	4.730119e-05	3.388752e-05
2.963009	1.092813e-04	2.280374e-05	4.646216e-05	3.236475e-05
2.964010	1.057812e-04	2.278065e-05	4.563717e-05	3.086824e-05
2.965011	1.023224e-04	2.279948e-05	4.482636e-05	2.940075e-05
2.966011	9.890873e-05	2.286189e-05	4.402987e-05	2.796504e-05
2.967012	9.554396e-05	2.296951e-05	4.324785e-05	2.656387e-05
2.968012	9.223196e-05	2.312399e-05	4.248044e-05	2.519999e-05
2.969013	8.897655e-05	2.332698e-05	4.172777e-05	2.387617e-05
2.970013	8.578158e-05	2.358012e-05	4.098999e-05	2.259516e-05
2.971014	8.265088e-05	2.388506e-05	4.026724e-05	2.135973e-05
2.972014	7.958829e-05	2.424344e-05	3.955967e-05	2.017262e-05
2.973015	7.659765e-05	2.465691e-05	3.886742e-05	1.903661e-05
2.974015	7.368278e-05	2.512710e-05	3.819062e-05	1.795445e-05
2.975016	7.084743e-05	2.565561e-05	3.752941e-05	1.692883e-05
