1.040000	1.496810e-05	-4.945681e-07	-1.159494e-06	-2.541568e-06
1.041001	8.384114e-06	-3.527164e-06	-2.229938e-06	4.680976e-06
1.042001	8.055682e-06	-5.386509e-06	-1.599575e-06	5.986897e-06
1.043002	2.240852e-05	-3.950980e-06	9.722514e-07	5.378271e-06
1.044002	2.251991e-05	-3.619967e-06	1.408466e-06	-5.766166e-06
1.045003	-9.520900e-07	-3.449871e-06	1.454267e-06	-1.811953e-05
1.046003	-1.784128e-05	-2.499534e-06	1.990501e-06	-1.759782e-05
1.047004	-2.784166e-05	-2.495325e-06	1.133198e-06	-2.801905e-06
1.048004	-3.019946e-05	-2.762411e-06	1.137075e-06	1.455720e-05
1.049005	-2.513233e-05	-2.083730e-06	2.064885e-06	1.442350e-05
1.050005	-3.367582e-05	2.604017e-06	1.935541e-06	1.503337e-05
1.051006	-4.184046e-05	4.633464e-06	5.288234e-07	3.081174e-05
1.052006	-1.029988e-05	-1.731504e-07	3.370934e-07	3.533048e-05
1.053007	5.117300e-05	-1.409494e-06	-3.560647e-07	2.599033e-05
1.054007	6.995452e-05	1.078373e-06	-3.344052e-06	1.423946e-05
1.055008	3.347317e-05	8.248062e-07	-3.274219e-06	-2.132975e-06
1.056008	7.366913e-06	-1.112675e-06	-1.861532e-06	-2.462999e-05
1.057009	-1.394127e-06	-1.460823e-06	-2.622242e-06	-3.802172e-05
1.058009	2.827599e-06	-2.475736e-06	-1.729667e-06	-2.817724e-05
1.059010	2.655750e-05	-1.435611e-07	4.109701e-07	-2.327368e-05
1.060011	2.664181e-05	7.686416e-06	9.026317e-07	-2.664254e-05
1.061011	3.536796e-06	6.008617e-06	1.667468e-06	-8.707179e-06
1.062012	-1.081272e-05	-1.218641e-06	3.466332e-06	8.470124e-06
1.063012	-1.973799e-05	-9.080160e-07	2.364303e-06	2.794581e-06
1.064013	-2.393560e-05	-3.882413e-07	5.085321e-07	-3.379727e-06
1.065013	-2.587027e-05	-7.928388e-07	1.816174e-06	2.199289e-06
1.066014	-1.936634e-05	2.779384e-06	1.181312e-06	3.775535e-06
1.067014	2.799352e-06	3.905236e-06	-3.357023e-07	1.011289e-06
1.068015	2.068438e-05	1.608292e-06	-7.833943e-07	1.319396e-05
1.069015	2.345943e-05	1.087113e-06	-3.885496e-06	2.940440e-05
1.070016	1.391328e-05	5.124813e-07	-4.171481e-06	2.752782e-05
1.071016	3.208217e-06	-2.265092e-07	-1.143189e-06	1.507063e-05
1.072017	1.445499e-06	-2.760533e-06	-8.507025e-07	8.830092e-06
1.073017	-3.524423e-07	-3.497428e-06	-1.605943e-06	5.622252e-06
1.074018	-6.813004e-06	1.023382e-06	-1.095466e-06	-1.117009e-05
1.075018	-9.590924e-06	-1.308179e-06	-9.388893e-07	-3.408341e-05
1.076019	-1.046308e-05	-4.001515e-06	-1.251044e-06	-3.774508e-05
1.077019	-2.280284e-05	6.297548e-07	8.219390e-07	-2.275062e-05
1.078020	-3.667621e-05	1.360317e-06	2.446871e-06	-6.628111e-06
1.079020	-4.739401e-05	9.042403e-07	1.880426e-06	2.294370e-06
1.080021	-5.331684e-05	3.969161e-07	1.623010e-06	5.312818e-06
1.081022	-4.549778e-05	-1.266800e-06	1.633056e-06	9.768548e-06
1.082022	-5.494800e-05	-1.247848e-06	2.843575e-06	1.193951e-05
1.083023	-2.327286e-05	-1.353754e-06	1.423124e-06	7.959222e-06
1.084023	9.083258e-05	9.332571e-07	-1.742711e-06	7.469713e-06
1.085024	1.327697e-04	1.073830e-06	-5.885364e-07	5.826096e-06
1.086024	7.704211e-05	-8.751103e-07	6.460391e-07	1.217937e-06
1.087025	3.971032e-05	-2.701281e-07	4.542393e-07	6.191442e-06
1.088025	1.829948e-05	-1.027895e-06	9.803166e-07	1.113226e-05
1.089026	2.418086e-06	-2.123277e-06	-2.604288e-07	2.768520e-06
1.090026	4.783695e-06	-3.065134e-06	-1.697877e-06	-3.664867e-06
1.091027	4.195069e-06	-1.367918e-06	-1.394691e-06	3.647420e-06
1.092027	-6.113549e-06	8.052088e-07	-1.912527e-06	4.185008e-06
1.093028	-1.404103e-05	-8.618643e-07	-1.435681e-06	-8.084074e-06
1.094028	-1.594997e-05	1.967870e-07	7.087756e-07	-6.068148e-06
1.095029	-2.171748e-05	1.359600e-06	2.128738e-06	6.741581e-06
1.096029	-1.780312e-05	-5.342860e-08	2.990042e-06	7.795817e-06
1.097030	-5.367468e-06	8.669216e-07	1.149143e-06	5.138305e-06
1.098030	-1.444565e-05	1.340939e-06	-1.623400e-07	2.014560e-06
1.099031	-2.563665e-05	-9.535915e-09	1.335080e-06	-1.006515e-05
1.100032	-1.748965e-05	1.789512e-06	7.032456e-07	-1.746960e-05
1.101032	-1.072163e-05	3.325619e-06	-9.106357e-07	-1.310275e-05
1.102033	-7.061915e-06	2.037306e-06	-7.721841e-07	-7.540731e-06
1.103033	1.292646e-05	3.246885e-06	-5.343188e-08	-1.828034e-07
1.104034	3.164539e-05	1.082972e-06	-8.699550e-07	5.489445e-06
1.105034	2.200624e-05	-7.667598e-07	-1.868441e-06	3.558424e-06
1.106035	7.024067e-06	2.635080e-06	-9.124705e-07	1.675465e-06
1.107035	-7.064656e-07	-1.203819e-06	2.606132e-07	-8.390029e-07
1.108036	-9.081553e-06	-3.638352e-06	6.847460e-07	-8.372315e-06
1.109036	-9.464899e-06	1.372307e-06	1.612238e-07	-1.165694e-05
1.110037	-5.796039e-06	2.583601e-06	-8.348018e-07	-4.380195e-06
1.111037	-8.249509e-06	9.873862e-07	-9.189863e-07	3.605393e-06
1.112038	-1.213223e-05	-3.102398e-06	-7.516399e-08	3.530929e-06
1.113038	5.524530e-06	-5.009133e-06	6.895611e-07	-2.589796e-06
1.114039	3.128666e-05	-1.845318e-06	9.058547e-07	-7.765749e-06
1.115039	2.130505e-05	-1.270345e-06	-7.204269e-07	-3.173173e-06
1.116040	-9.937146e-06	-8.585705e-07	-2.572718e-06	5.244484e-06
1.117040	-2.957507e-05	-4.337253e-07	-3.310992e-07	7.146012e-06
1.118041	-2.517643e-05	-6.718969e-07	1.028797e-06	6.685828e-06
1.119041	-1.673790e-05	1.644266e-07	-9.755815e-07	7.415589e-06
1.120042	-4.010880e-05	-1.843258e-06	-1.065140e-06	8.292687e-06
1.121043	-4.487054e-05	-1.180752e-06	-1.358568e-06	6.585167e-06
1.122043	7.405095e-06	4.950876e-07	-1.846955e-06	5.017564e-06
1.123044	3.949342e-05	-1.046971e-07	-8.990983e-07	3.474333e-06
1.124044	1.846817e-05	4.107048e-06	1.401809e-07	-4.768817e-06
1.125045	8.480207e-06	4.958194e-06	3.026018e-06	-3.867346e-06
1.126045	2.675999e-05	1.285426e-06	3.049927e-06	1.468983e-05
1.127046	2.481240e-05	1.838932e-06	-7.202778e-07	2.693733e-05
1.128046	1.097085e-05	1.721858e-06	-4.687642e-07	2.163737e-05
1.129047	1.752837e-05	-3.923066e-07	2.610254e-06	1.419142e-05
1.130047	9.853014e-06	-5.088567e-07	2.197615e-06	7.289239e-06
1.131048	-2.189177e-05	-7.204521e-07	-5.110937e-07	-1.583615e-05
1.132048	-3.130836e-05	-1.980932e-06	1.274387e-06	-3.257396e-05
1.133049	-1.003377e-05	-7.103967e-07	2.836628e-06	-1.736226e-05
1.134049	-1.652789e-06	-6.605509e-07	1.572579e-07	-3.856664e-06
1.135050	-1.524627e-05	-3.503598e-06	1.362851e-06	-4.506798e-06
1.136050	-1.221851e-06	-3.123129e-06	1.233539e-06	2.233232e-06
1.137051	3.448047e-05	-1.470090e-06	-2.321945e-06	6.021363e-06
1.138051	4.690619e-05	9.359274e-07	-8.881733e-07	-5.183114e-06
1.139052	4.377894e-05	3.112071e-06	3.455213e-07	-1.301596e-05
1.140053	2.883980e-05	6.853123e-07	-1.762750e-06	-1.991671e-05
1.141053	-9.402013e-07	-2.157889e-06	-2.467469e-06	-4.019338e-05
1.142054	-1.873686e-05	-2.757107e-06	-1.782001e-06	-4.222880e-05
1.143054	-1.318849e-05	-1.742287e-06	-3.283839e-06	-1.900355e-05
1.144055	-6.170125e-06	-8.142081e-08	-2.908153e-06	-1.339034e-06
1.145055	-1.554430e-05	1.162857e-06	7.775492e-07	1.539051e-05
1.146056	-2.084448e-05	2.100359e-06	-1.053997e-08	2.900675e-05
1.147056	-5.463772e-06	1.830772e-06	1.263192e-06	2.466019e-05
1.148057	1.701267e-06	1.797505e-06	3.633446e-06	1.681694e-05
1.149057	-9.996658e-06	2.583786e-06	5.056725e-07	1.442545e-05
1.150058	-1.861151e-05	2.884685e-06	3.628422e-07	7.978300e-06
1.151058	-1.916676e-05	-1.180739e-08	5.821477e-07	1.126664e-06
1.152059	-1.575076e-05	-3.132104e-06	2.094661e-07	2.243133e-06
1.153059	-1.016773e-05	1.064502e-08	7.728400e-07	4.873580e-06
1.154060	-5.163850e-07	1.531336e-06	-4.504765e-07	6.475739e-06
1.155060	6.101567e-06	-1.477967e-07	8.836887e-07	1.106479e-05
1.156061	-2.357821e-07	2.171015e-07	1.302391e-06	1.425260e-05
1.157061	-3.827766e-06	-1.974201e-06	5.046816e-07	1.306210e-05
1.158062	1.363197e-06	7.628967e-07	2.109917e-06	9.305772e-06
1.159063	2.384510e-06	5.315050e-06	9.497547e-07	3.135445e-06
1.160063	1.006889e-07	8.821199e-07	-1.320515e-06	8.979619e-07
1.161064	3.399405e-08	1.513981e-06	-2.889199e-07	-3.894997e-07
1.162064	1.778483e-06	3.650463e-06	-8.626138e-08	-1.199724e-05
1.163065	3.034166e-06	-1.565386e-07	-1.758135e-06	-1.553861e-05
1.164065	3.945577e-06	1.314049e-06	-1.877483e-06	-3.686338e-06
1.165066	4.936030e-06	3.125708e-07	-5.181894e-07	-8.011653e-07
1.166066	2.847945e-06	-1.379324e-06	2.625814e-07	-6.176563e-06
1.167067	3.188036e-06	1.105541e-07	-1.990109e-06	-8.108358e-06
1.168067	6.711062e-06	-9.202349e-06	-3.823189e-06	-5.574854e-06
1.169068	4.327860e-06	-1.457786e-05	-1.706786e-06	-3.877406e-06
1.170068	3.406257e-06	-9.666454e-06	-3.893700e-07	-1.008025e-05
1.171069	3.578192e-06	-1.096327e-05	-1.341745e-06	-1.147690e-05
1.172069	-2.567826e-07	-9.449352e-06	-9.879669e-07	-7.717541e-06
1.173070	1.340885e-06	-5.456000e-06	3.675137e-07	-1.082066e-05
1.174070	2.540677e-06	-2.282877e-06	2.143208e-07	-7.030939e-06
1.175071	7.092489e-07	1.594957e-05	1.156332e-06	2.377036e-06
1.176071	1.199616e-06	2.755783e-05	3.220460e-06	5.722981e-06
1.177072	2.006642e-07	1.270436e-05	3.239762e-06	1.103379e-05
1.178072	-2.256481e-07	1.855858e-06	1.103268e-06	1.280811e-05
1.179073	2.634769e-07	2.981086e-06	-2.075689e-06	1.230460e-05
1.180074	1.118108e-06	1.692476e-06	3.128038e-07	1.610523e-05
1.181074	1.712586e-06	2.357193e-06	2.812009e-06	5.956695e-06
1.182075	-1.601347e-07	3.074254e-06	-1.129299e-06	-8.207498e-06
1.183075	-1.390929e-08	9.078518e-07	1.219064e-06	1.843880e-07
1.184076	1.535145e-06	-6.559992e-07	5.322124e-06	1.601602e-05
1.185076	1.958494e-06	-1.918240e-06	9.587457e-07	1.632128e-05
1.186077	1.774528e-06	-1.890900e-06	-1.608034e-06	5.551860e-06
1.187077	5.372245e-07	-9.616161e-07	7.244308e-07	-1.476964e-06
1.188078	-8.628988e-07	-1.285656e-06	6.869722e-07	-4.866144e-06
1.189078	-2.242896e-06	-2.758575e-06	-1.741830e-06	-1.349717e-05
1.190079	-3.694331e-06	-3.887633e-06	-4.770519e-07	-2.718300e-05
1.191079	-8.331946e-06	-4.691291e-06	1.394441e-06	-3.217446e-05
1.192080	-1.101760e-05	-2.878631e-06	-6.567864e-07	-1.422172e-05
1.193080	-6.291463e-06	-2.058463e-06	-5.106624e-07	2.902319e-06
1.194081	-9.830651e-06	-4.608960e-06	8.915099e-07	-2.346805e-06
1.195081	-1.874657e-05	-1.323343e-06	-8.121005e-07	-5.219028e-06
1.196082	-1.080877e-05	-1.283285e-07	-2.382654e-06	2.403675e-06
1.197082	5.690910e-06	-3.957559e-06	-2.036856e-06	6.788650e-06
1.198083	7.957314e-06	-1.060427e-06	-1.430494e-06	7.989508e-06
1.199084	8.032167e-07	1.734950e-06	-1.449322e-06	9.353438e-06
1.200084	1.336580e-05	2.716042e-06	-3.173771e-07	1.165014e-05
1.201085	3.429399e-05	4.902975e-06	9.655183e-07	1.108645e-05
1.202085	2.561972e-05	1.027127e-06	1.263486e-07	6.887839e-06
1.203086	2.773051e-06	-4.420841e-06	-9.166361e-07	2.977081e-06
1.204086	-9.381573e-06	-2.936410e-06	-6.785976e-07	-1.764054e-07
1.205087	-1.074254e-05	-2.073365e-06	-3.019250e-07	-1.906657e-06
1.206087	-8.188122e-06	-4.305604e-06	-1.013934e-06	-2.207864e-06
1.207088	-8.183060e-06	-2.861474e-06	-1.432321e-06	-2.730379e-06
1.208088	4.533665e-06	3.620049e-08	-3.100846e-07	-9.971050e-07
1.209089	1.872454e-05	8.883180e-06	7.658149e-07	1.217197e-06
1.210089	6.911091e-06	1.588442e-05	1.942237e-06	-2.033429e-06
1.211090	-6.035133e-06	6.511124e-06	2.630727e-06	-2.753051e-06
1.212090	-3.403576e-06	-1.021608e-06	-6.215987e-07	7.826140e-07
1.213091	-5.511949e-06	1.624912e-06	-1.767339e-06	8.628780e-07
1.214091	-7.426473e-06	2.490703e-06	2.118778e-06	3.922781e-06
1.215092	-2.463768e-06	1.295966e-07	7.873548e-07	7.099804e-06
1.216092	-3.845797e-06	-7.824145e-07	-9.042536e-07	4.093615e-06
1.217093	-4.180130e-06	7.112803e-07	1.324994e-06	-8.473430e-07
1.218093	-1.670415e-06	-6.620533e-07	5.600675e-09	-3.627270e-06
1.219094	-4.237687e-06	-1.354999e-06	-3.378515e-07	2.377047e-06
1.220095	-2.916621e-06	-1.472420e-06	-8.417021e-08	3.774844e-06
1.221095	-1.971992e-07	-4.933265e-06	-1.506323e-06	-7.245684e-06
1.222096	3.582261e-07	-3.212395e-06	-5.733355e-07	-5.931479e-06
1.223096	1.459422e-06	6.008473e-08	5.647203e-07	2.746628e-06
1.224097	-8.839701e-07	-1.234907e-06	9.237354e-07	-7.489313e-06
1.225097	-1.397481e-06	-1.223890e-06	8.941204e-07	-1.909452e-05
1.226098	1.347146e-06	-1.974220e-07	1.610715e-07	-1.122186e-05
1.227098	-1.238266e-06	-1.637012e-06	-1.915303e-07	1.781367e-06
1.228099	-2.347418e-06	-3.441222e-06	6.954143e-07	1.216290e-05
1.229099	2.499030e-06	-3.499093e-06	9.810822e-07	1.909418e-05
1.230100	9.182595e-07	-3.693011e-06	2.452141e-06	1.803137e-05
1.231100	-1.123559e-06	-1.855845e-06	4.391808e-06	1.366763e-05
1.232101	1.488419e-06	1.118130e-06	8.325544e-07	4.364499e-06
1.233101	2.372046e-07	5.384609e-07	-1.596631e-06	-4.478419e-06
1.234102	1.770091e-06	3.492077e-07	-7.191596e-07	-1.507944e-06
1.235102	3.845087e-06	1.538788e-06	-1.338023e-06	-1.442537e-05
1.236103	1.105826e-06	1.077920e-06	-8.513455e-07	-4.111476e-05
1.237103	1.453257e-06	-5.737480e-07	-2.655022e-07	-2.100708e-05
1.238104	4.476846e-06	-4.146479e-07	-3.937416e-07	2.422611e-05
1.239105	4.711938e-06	1.863490e-06	-5.692765e-07	3.152335e-05
1.240105	1.912227e-06	7.974868e-07	-1.486762e-06	1.726372e-05
1.241106	1.689828e-06	2.165598e-07	-2.736425e-06	3.315884e-06
1.242106	3.436313e-06	2.828543e-06	-3.356873e-06	-1.117199e-05
1.243107	9.429134e-07	2.867947e-06	-1.877496e-06	-2.243825e-05
1.244107	-7.062100e-07	3.779238e-06	-1.173102e-07	-2.606065e-05
1.245108	8.366379e-07	4.813168e-06	7.115252e-07	-1.190390e-05
1.246108	-2.425011e-07	4.040720e-06	1.390383e-06	5.479508e-06
1.247109	-1.054654e-06	4.326217e-06	6.268117e-07	3.195873e-06
1.248109	6.100167e-07	3.507151e-06	-1.176048e-06	-6.838549e-06
1.249110	3.680841e-07	4.083451e-06	-1.143554e-06	-4.005797e-06
1.250110	-2.928742e-06	1.619407e-06	7.413260e-08	7.116407e-06
1.251111	-4.700133e-06	-2.216570e-06	-2.302974e-07	1.883708e-05
1.252111	-3.355285e-06	4.683644e-07	-3.015460e-07	2.414026e-05
1.253112	-6.572867e-06	-6.855066e-07	-1.808717e-07	6.540948e-06
1.254112	-1.074172e-05	-2.436541e-06	-2.478612e-07	-1.127416e-05
1.255113	-1.031899e-05	-2.144641e-06	5.072612e-07	-5.771362e-06
1.256113	-1.804529e-05	-3.708269e-06	-6.533601e-07	1.092432e-06
1.257114	-2.626909e-05	-1.262645e-06	1.182574e-07	2.607391e-06
1.258114	-2.067503e-05	-2.354629e-06	1.288105e-06	5.204139e-06
1.259115	-1.642718e-05	-1.257758e-06	-6.674201e-07	5.746137e-06
1.260116	-1.269631e-05	-2.557997e-07	1.833161e-06	5.358226e-06
1.261116	2.602553e-06	-1.488550e-05	4.247355e-06	1.723833e-06
1.262117	3.195233e-05	-2.416171e-05	4.732770e-06	-8.066388e-06
1.263117	6.376489e-05	-2.128230e-05	5.441532e-06	-1.122097e-05
1.264118	5.674095e-05	-1.778551e-05	1.918817e-06	-3.874179e-06
1.265118	2.137388e-05	-1.575279e-05	7.895156e-07	-8.919092e-07
1.266119	4.477751e-06	-2.137423e-05	5.462516e-07	2.108808e-06
1.267119	-2.879315e-08	-1.104884e-05	-1.391276e-06	5.024659e-06
1.268120	-1.258009e-06	9.288938e-06	-3.284595e-07	-5.276720e-06
1.269120	2.047531e-06	1.272364e-05	-7.016009e-07	-1.306830e-05
1.270121	1.193784e-06	5.048632e-05	-9.640495e-07	-5.665565e-06
1.271121	-2.916597e-06	8.919713e-05	-5.085116e-07	4.956252e-06
1.272122	-6.171533e-06	4.706437e-05	-3.500197e-06	1.035291e-05
1.273122	-7.957290e-06	7.019789e-06	-4.267318e-06	1.068812e-05
1.274123	-9.685195e-06	1.208316e-05	-1.263568e-06	8.881364e-06
1.275123	-1.066808e-05	7.867251e-07	-1.126119e-06	4.422101e-06
1.276124	-8.991708e-06	-1.506182e-05	-3.052374e-06	8.432643e-07
1.277124	-7.051971e-06	-1.312213e-05	-3.248023e-06	1.191532e-06
1.278125	-6.710424e-06	-8.710103e-06	-1.399593e-06	-4.106270e-06
1.279126	-6.656877e-06	-7.903022e-06	1.465546e-06	-9.212523e-06
1.280126	-7.871132e-06	-7.163328e-06	8.841282e-07	-1.333194e-06
1.281127	-9.607230e-06	-6.991120e-06	-4.688029e-07	3.125421e-06
1.282127	-8.036481e-06	-1.612605e-05	9.162205e-07	7.611847e-07
1.283128	-5.035519e-06	-2.461880e-05	1.108270e-06	8.645718e-06
1.284128	-2.805259e-06	-1.994078e-05	1.037719e-06	1.096400e-05
1.285129	-2.127412e-06	-1.499175e-05	-5.040632e-07	3.336276e-06
1.286129	-3.274411e-06	-1.952409e-05	-1.326188e-06	-9.919160e-07
1.287130	-7.264431e-07	-2.402291e-05	1.702091e-06	-9.964368e-06
1.288130	4.163294e-06	-8.551454e-06	1.482035e-06	-1.399426e-05
1.289131	4.269417e-06	6.761675e-06	8.338796e-08	-1.506597e-05
1.290131	4.197710e-06	3.689321e-06	4.754361e-07	-1.973518e-05
1.291132	7.319147e-06	1.419261e-05	-3.943161e-07	-1.012156e-05
1.292132	7.296612e-06	1.379828e-05	-1.541141e-07	2.181066e-06
1.293133	5.008158e-06	-1.188637e-05	1.035374e-06	5.224173e-06
1.294133	3.956645e-06	-2.331375e-05	1.393826e-06	4.011035e-06
1.295134	2.098880e-06	-2.168514e-05	6.442989e-07	1.276578e-07
1.296134	1.589554e-06	-1.487930e-05	-2.886205e-07	1.481216e-06
1.297135	3.363945e-06	-4.430814e-06	7.218375e-07	3.132317e-06
1.298136	2.068267e-06	3.929698e-05	1.532986e-06	-2.503020e-06
1.299136	-1.284507e-06	8.074346e-05	1.568462e-07	-4.582763e-06
1.300137	-8.877849e-07	4.337519e-05	-7.295764e-09	2.154654e-06
1.301137	8.208337e-07	5.232488e-06	1.853830e-06	8.366644e-06
1.302138	1.852444e-08	5.248073e-06	3.277367e-07	1.281703e-05
1.303138	-7.932729e-07	-3.698372e-06	-2.943896e-06	1.499059e-05
1.304139	-1.287705e-06	-1.435614e-05	-9.927695e-07	8.787772e-06
1.305139	-1.818602e-06	-1.195204e-05	1.134648e-06	-1.395593e-06
1.306140	-7.359327e-07	1.762448e-05	3.499942e-08	-8.160425e-06
1.307140	-2.298429e-07	3.067672e-05	6.458922e-07	-7.061404e-06
1.308141	-1.207943e-06	3.919956e-06	-7.318807e-08	-3.576676e-07
1.309141	-1.786304e-06	-9.727208e-06	-1.618965e-06	6.039000e-06
1.310142	-2.381327e-06	-9.760167e-06	-9.232270e-07	8.607437e-06
1.311142	-1.941303e-06	-1.158535e-05	-1.263730e-06	6.857276e-06
1.312143	-1.480145e-06	-1.134923e-05	-2.721619e-07	8.570635e-06
1.313143	-8.193262e-07	-1.064061e-05	1.241080e-08	8.318726e-06
1.314144	2.064014e-06	-8.890773e-06	-2.837969e-06	8.112989e-07
1.315144	2.676184e-06	-1.018915e-05	-2.431653e-06	-4.803265e-06
1.316145	2.208213e-06	-6.976576e-06	-5.019374e-07	-1.252776e-05
1.317145	8.071611e-07	-6.872594e-07	-1.474312e-07	-1.866758e-05
1.318146	-2.029722e-06	-2.944255e-06	-2.594950e-07	-1.827710e-05
1.319147	-9.982577e-07	-5.973861e-06	-3.297928e-07	-1.482158e-05
1.320147	-1.223905e-07	-8.261484e-06	3.502692e-07	-3.708589e-06
1.321148	7.768063e-07	-9.946702e-06	6.849723e-07	6.116699e-06
1.322148	1.625841e-06	-4.661314e-06	1.787327e-06	8.257980e-06
1.323149	-7.492647e-07	-3.181183e-07	1.670643e-06	3.973841e-06
1.324149	4.244657e-07	2.228579e-06	-3.672837e-07	-1.518865e-06
1.325150	2.741293e-06	5.123648e-06	1.878734e-06	-3.615166e-06
1.326150	2.541983e-06	3.639560e-06	5.964392e-06	-6.216706e-06
1.327151	2.385636e-06	2.581282e-06	3.154521e-06	8.033021e-06
1.328151	2.366002e-06	2.717611e-06	-1.001040e-06	2.701931e-05
1.329152	3.975962e-06	2.209358e-06	3.031971e-06	2.384774e-05
1.330152	5.339442e-07	-5.262122e-07	3.687548e-06	1.491422e-05
1.331153	-5.307084e-06	-5.486593e-06	-2.419989e-06	5.706678e-06
1.332153	-2.611269e-06	-4.381662e-06	-1.498852e-06	-4.935727e-06
1.333154	-1.653703e-06	1.239020e-06	8.849381e-07	-2.114805e-05
1.334154	-5.491715e-06	6.281404e-06	-2.062183e-06	-3.394923e-05
1.335155	-3.205948e-06	7.431623e-06	-3.173341e-06	-2.027801e-05
1.336155	7.115049e-07	2.594801e-06	-1.065396e-06	-5.564886e-06
1.337156	-1.738047e-06	-4.875609e-06	-1.716292e-07	-1.391312e-06
1.338157	-4.472500e-06	-1.270896e-05	-1.010174e-06	6.571769e-06
1.339157	-7.873270e-07	-1.580757e-05	-7.582445e-07	7.402690e-06
1.340158	2.830773e-06	-2.151748e-05	-7.495287e-07	2.640956e-06
1.341158	2.730475e-06	-2.163656e-05	-1.497499e-06	3.816120e-06
1.342159	2.538489e-06	-1.804912e-06	-1.831280e-06	6.401913e-06
1.343159	1.446362e-06	9.633908e-06	-1.987152e-06	5.964375e-06
1.344160	-3.945128e-07	2.552370e-06	-1.180709e-06	8.239078e-06
1.345160	-2.883430e-06	-1.044398e-05	-8.703689e-07	5.143813e-06
1.346161	-4.103260e-06	1.361495e-05	-6.132020e-07	-4.932092e-06
1.347161	1.909841e-07	8.039687e-05	-8.639737e-07	-5.737040e-06
1.348162	2.473640e-06	7.745449e-05	-2.801069e-06	-1.062680e-05
1.349162	-9.727114e-07	1.769029e-05	-1.851713e-06	-1.704671e-05
1.350163	-4.566320e-07	2.078863e-06	4.822496e-07	-3.958997e-07
1.351163	2.952817e-06	-1.609314e-06	1.419099e-06	1.621476e-05
1.352164	2.527989e-06	-1.211185e-05	3.730068e-06	1.251633e-05
1.353164	-8.508165e-07	-1.394272e-05	3.431198e-06	4.027753e-06
1.354165	-2.468773e-06	-1.865309e-05	6.738370e-07	1.156479e-06
1.355165	9.417359e-07	-2.158940e-05	1.569920e-06	7.249865e-07
1.356166	6.962826e-07	-2.296464e-05	2.371516e-06	-5.003784e-06
1.357166	-2.254020e-06	-1.257599e-05	1.523599e-06	-9.478722e-06
1.358167	2.658267e-06	3.167762e-06	1.044054e-06	-5.559417e-06
1.359168	5.183505e-06	2.008575e-06	-4.096251e-07	-2.110134e-06
1.360168	1.561436e-06	9.257247e-06	-5.497417e-07	-6.481190e-07
1.361169	1.813550e-07	1.919918e-05	-4.564877e-08	1.602989e-06
1.362169	-7.833970e-07	4.949020e-07	-5.084943e-07	2.293451e-06
1.363170	-1.783942e-06	-1.604389e-05	8.462109e-07	2.167350e-06
1.364170	-2.232843e-06	-1.638186e-05	1.467147e-06	1.587995e-06
1.365171	-2.399338e-06	-1.492480e-05	-1.266457e-06	-1.983483e-07
1.366171	-1.518214e-06	-9.203980e-06	-2.042635e-06	-1.259600e-06
1.367172	-4.369328e-07	-7.149518e-06	-9.665155e-07	3.357965e-07
1.368172	1.095076e-06	-1.993005e-05	-1.893409e-06	3.783157e-06
1.369173	1.809888e-06	-4.210072e-05	-8.462308e-07	5.517347e-06
1.370173	2.365824e-06	-2.486396e-05	1.627193e-06	6.150383e-06
1.371174	3.658842e-06	2.152094e-05	1.724102e-06	1.258649e-05
1.372174	1.258162e-06	1.793691e-05	1.772589e-06	1.752924e-05
1.373175	-9.687241e-07	2.597502e-06	2.745586e-06	9.752706e-06
1.374175	-6.576519e-08	1.408704e-05	2.877249e-06	3.815039e-06
1.375176	-1.229882e-06	2.297705e-05	1.227702e-07	4.846786e-06
1.376176	-3.260393e-07	4.126274e-05	-3.448767e-06	-1.304260e-06
1.377177	-5.335134e-08	2.798443e-05	-2.480218e-06	-5.816561e-06
1.378178	-3.048839e-06	-1.941138e-05	2.268308e-07	-3.116813e-07
1.379178	-1.353273e-06	-2.021249e-05	-5.620791e-07	1.179676e-06
1.380179	-1.414127e-06	2.485172e-06	-5.885456e-07	-1.064562e-05
1.381179	-4.094154e-06	6.501482e-06	1.145809e-06	-2.599004e-05
1.382180	-2.482483e-06	6.837375e-06	-6.445604e-07	-2.798634e-05
1.383180	-1.057436e-06	5.224491e-06	-2.111124e-06	-1.696674e-05
1.384181	-1.024904e-06	2.812079e-06	6.383874e-07	-3.208110e-06
1.385181	-4.320473e-07	-1.185416e-07	5.227143e-07	-5.564646e-07
1.386182	2.166361e-06	-9.488249e-07	-3.545294e-06	-1.268623e-05
1.387182	3.703087e-06	4.849012e-07	-2.183445e-06	-1.829936e-05
1.388183	1.176252e-06	-2.770018e-06	1.257354e-06	-9.212044e-06
1.389183	3.885386e-07	-5.273005e-06	-7.633030e-07	6.218402e-06
1.390184	1.778135e-06	-5.481243e-06	-7.038934e-07	1.848767e-05
1.391184	-4.784420e-08	-3.902382e-06	-3.388412e-08	1.975800e-05
1.392185	-2.462921e-06	-6.662493e-08	-2.434508e-06	1.418879e-05
1.393185	-5.039169e-07	2.633655e-06	-3.361923e-07	7.843693e-06
1.394186	1.153222e-06	3.611345e-06	5.146075e-07	6.239501e-06
1.395186	1.622536e-06	5.061590e-07	-1.394991e-06	6.334288e-06
1.396187	2.206471e-06	-2.039798e-06	-6.554483e-07	-4.805632e-07
1.397188	-1.863290e-07	-2.397041e-06	-1.275620e-06	-9.725054e-06
1.398188	-1.933771e-07	-4.702898e-06	9.623375e-07	-1.169139e-05
1.399189	9.030149e-07	-2.265576e-06	4.425083e-06	-4.932891e-06
1.400189	-1.269677e-06	3.034922e-06	3.047091e-06	3.616533e-06
1.401190	-1.167195e-06	5.647263e-06	2.729551e-06	9.830717e-06
1.402190	4.143475e-07	6.144391e-06	2.888830e-06	1.133055e-05
1.403191	-1.768260e-07	-1.051703e-06	1.191946e-06	8.006300e-06
1.404191	3.216159e-08	-1.102380e-05	3.262821e-07	6.758075e-06
1.405192	1.842342e-06	-1.640172e-05	8.764518e-07	7.946075e-06
1.406192	1.312016e-06	-2.018498e-05	2.377767e-06	5.783614e-06
1.407193	3.466921e-07	-2.052976e-05	1.192768e-06	-1.367361e-06
1.408193	8.765734e-07	-1.882127e-05	-1.725706e-06	-7.507743e-06
1.409194	-1.166312e-06	-1.388614e-05	-8.261243e-07	-5.710521e-06
1.410194	-2.235883e-06	-4.080006e-06	1.430647e-06	-2.121820e-06
1.411195	-9.978029e-08	6.835592e-07	1.346454e-06	-1.663626e-06
1.412195	-9.640055e-07	1.046197e-05	-6.972359e-07	-1.252775e-06
1.413196	-5.337839e-07	3.253774e-05	-2.181183e-06	-2.359058e-06
1.414196	1.192036e-06	4.121312e-05	-9.551903e-07	-2.791317e-06
1.415197	-2.992833e-06	3.090694e-05	-1.455939e-06	-2.182647e-06
1.416197	-2.737069e-06	2.305987e-05	-2.284070e-06	-3.609374e-06
1.417198	1.686646e-06	2.052337e-05	-1.447639e-07	-2.695266e-06
1.418199	5.436433e-07	1.269105e-05	-9.709778e-07	-4.149461e-07
1.419199	-1.202625e-06	2.322571e-06	-2.550004e-06	2.314150e-06
1.420200	-1.496517e-06	-3.500167e-06	-1.129642e-06	7.387868e-06
1.421200	1.766567e-06	-4.494355e-06	-5.939390e-07	7.781104e-06
1.422201	2.697387e-06	-2.565732e-06	-5.600932e-07	8.457562e-06
1.423201	-2.536313e-06	-2.588079e-06	-5.461033e-07	1.366808e-05
1.424202	-1.526346e-06	-6.451464e-06	-1.707928e-06	1.020534e-05
1.425202	1.706816e-06	-1.066003e-05	-1.112085e-06	4.067884e-07
1.426203	1.100841e-06	-9.476185e-06	3.544555e-07	-7.301783e-06
1.427203	-3.860304e-07	-6.652096e-06	-3.083711e-07	-1.246496e-05
1.428204	-1.707389e-06	-1.701415e-05	8.821434e-07	-1.586472e-05
1.429204	6.892574e-07	-3.127171e-05	1.409101e-06	-1.733136e-05
1.430205	1.991713e-06	-3.491652e-05	-1.136114e-06	-9.583779e-06
1.431205	1.157895e-06	-3.452070e-05	-6.292620e-07	-6.267150e-07
1.432206	3.228619e-07	-2.550903e-05	1.021456e-07	-1.233861e-06
1.433206	-8.245683e-07	-1.211523e-05	1.932320e-06	-7.599310e-06
1.434207	5.255868e-07	7.173738e-06	4.854577e-06	-1.312715e-05
1.435207	-1.852939e-08	3.508297e-05	1.712849e-06	-6.970224e-06
1.436208	3.053634e-07	3.226015e-05	-8.611814e-07	1.559789e-06
1.437209	2.944124e-06	1.633218e-05	-2.251014e-07	1.587282e-06
1.438209	1.417515e-06	1.731758e-05	8.559775e-07	7.380075e-06
1.439210	-1.378047e-06	-2.408299e-06	1.974794e-06	1.641860e-05
1.440210	-3.216092e-06	-2.304888e-05	-3.468781e-08	9.902798e-06
1.441211	-3.525155e-07	-4.476515e-07	-2.890575e-07	-6.574243e-06
1.442211	3.016339e-06	3.837841e-05	2.752307e-07	-1.011415e-05
1.443212	-6.508497e-07	3.769122e-05	-1.301789e-06	-1.320748e-06
1.444212	-1.669177e-06	-5.511064e-07	-5.488295e-07	3.140731e-06
1.445213	7.022337e-08	-1.512932e-05	-4.709529e-07	5.942431e-06
1.446213	-1.797100e-06	-1.083321e-05	-1.751875e-06	1.144331e-05
1.447214	-3.506390e-06	-1.645160e-05	-2.196650e-06	1.201364e-05
1.448214	-3.900335e-06	-1.405391e-05	-1.137762e-06	6.822284e-06
1.449215	-2.025844e-06	-1.766393e-05	5.409920e-07	2.262782e-06
1.450215	1.856569e-06	-3.816673e-06	-7.480077e-07	6.875511e-07
1.451216	5.340255e-06	5.085790e-05	7.708787e-07	-7.485029e-07
1.452216	7.323024e-06	5.217278e-05	3.457666e-06	-1.294270e-06
1.453217	5.108034e-06	1.632347e-06	-1.769007e-07	4.893937e-07
1.454217	3.153864e-07	-7.780100e-06	-1.472892e-06	7.035403e-07
1.455218	1.599974e-06	-4.612033e-06	2.502647e-06	-6.433698e-07
1.456218	4.581509e-06	-1.381482e-05	3.362541e-06	-4.393710e-07
1.457219	-3.204453e-06	-8.511978e-06	1.013796e-06	2.461324e-07
1.458220	-9.751289e-06	-3.378266e-06	2.133446e-07	-3.399985e-07
1.459220	-7.790775e-06	-5.463183e-06	6.339107e-07	-6.952285e-07
1.460221	-8.320063e-06	-4.615631e-06	8.618606e-07	-1.095162e-06
1.461221	-6.513262e-06	-3.714016e-06	-3.211762e-07	-2.085706e-06
1.462222	-2.267722e-08	-3.889293e-06	-2.296684e-06	-1.130520e-06
1.463222	3.033909e-06	-4.498474e-06	-1.440845e-06	-1.540658e-06
1.464223	3.108189e-06	-6.066411e-06	1.111051e-07	-2.233126e-06
1.465223	3.673074e-06	-5.176607e-06	3.239145e-07	1.823716e-07
1.466224	2.619491e-06	-4.707834e-06	-4.763035e-08	-1.434400e-06
1.467224	3.612974e-07	-5.844848e-06	-1.440744e-06	-4.600738e-06
1.468225	2.316793e-07	-3.074739e-06	-2.003140e-06	-3.338262e-06
1.469225	-1.188392e-06	7.445505e-07	-1.156241e-07	8.539442e-07
1.470226	-9.142575e-07	2.070488e-06	1.281798e-06	6.224840e-06
1.471226	2.847487e-06	1.457932e-06	-9.967571e-07	6.985445e-06
1.472227	3.858806e-06	-1.079253e-06	-1.412794e-06	6.669919e-06
1.473227	4.031356e-06	-3.193883e-06	-1.718650e-07	6.307669e-06
1.474228	3.629031e-06	-3.392314e-07	-2.523063e-06	7.964301e-07
1.475228	2.342004e-06	9.550233e-07	-1.649158e-06	-1.256564e-06
1.476229	1.837526e-06	-5.284523e-06	9.520713e-07	-6.175685e-06
1.477230	-1.985967e-06	-7.455577e-06	-1.459837e-06	-1.368619e-05
1.478230	-5.319719e-06	-3.684318e-06	-2.772059e-06	-7.220789e-06
1.479231	-1.835573e-06	-2.128641e-06	2.788364e-07	-3.658158e-06
1.480231	1.699504e-07	-3.468353e-06	2.853168e-06	-5.846324e-06
1.481232	-1.426824e-06	-3.468270e-06	1.812509e-06	-2.666149e-07
1.482232	9.596041e-07	-5.419659e-06	1.000964e-06	-6.774772e-07
1.483233	2.151405e-06	1.190789e-07	1.434810e-06	-1.187662e-06
1.484233	2.450979e-07	3.133705e-05	-1.018170e-07	2.785952e-06
1.485234	-1.070494e-06	3.827043e-05	9.824284e-07	-4.292495e-06
1.486234	-2.520355e-06	1.679391e-06	2.519388e-06	-7.212299e-06
1.487235	-1.804698e-06	-1.347973e-05	-1.275610e-06	1.623494e-06
1.488235	-8.006010e-07	-7.190050e-06	-3.010303e-06	3.214553e-06
1.489236	-1.487317e-06	1.326795e-06	-1.122305e-06	2.609626e-06
1.490236	-1.431137e-06	1.381685e-05	-2.707251e-07	3.911749e-06
1.491237	1.696443e-06	9.458345e-06	1.380147e-06	4.624698e-07
1.492237	3.076780e-06	-2.048508e-09	2.302589e-06	2.731223e-06
1.493238	6.432472e-07	-2.163854e-06	9.036133e-07	4.321715e-06
1.494238	3.084637e-06	-2.663964e-06	9.563870e-07	-2.945969e-07
1.495239	4.089753e-06	1.917072e-06	1.720148e-06	2.550883e-06
1.496239	-8.860259e-07	2.527555e-06	9.048259e-07	4.533138e-06
1.497240	-4.395646e-06	-8.486679e-07	3.907012e-07	4.241069e-06
1.498241	-5.848542e-06	-6.282922e-07	4.861177e-07	8.713232e-06
1.499241	-2.827029e-06	-9.563244e-07	-7.113320e-08	8.450890e-06
1.500242	-2.825081e-07	-1.631553e-06	-8.493602e-07	6.508145e-07
1.501242	-1.989997e-06	-3.639502e-06	-4.080731e-07	-8.883412e-06
1.502243	-3.963869e-07	-5.559247e-06	-2.417425e-07	-7.568525e-06
1.503243	2.952742e-06	-2.920619e-06	-1.303551e-06	1.918727e-06
1.504244	3.376789e-06	-3.778307e-06	7.195687e-07	5.122690e-06
1.505244	1.386729e-06	-7.220831e-06	1.993045e-06	3.002348e-06
1.506245	-8.950401e-07	-4.285615e-06	-2.610277e-06	-2.335407e-06
1.507245	-3.961778e-07	-1.685020e-06	-3.345655e-06	-5.935151e-06
1.508246	1.354035e-06	-1.197108e-06	-1.929657e-08	-9.049473e-06
1.509246	-8.940106e-07	-1.360497e-07	-2.708727e-07	-1.377038e-05
1.510247	-2.946865e-06	-1.532142e-07	1.048740e-06	-9.439736e-06
1.511247	1.297697e-07	1.241347e-06	1.371668e-06	-1.748335e-06
1.512248	3.742100e-08	-1.603354e-06	-1.261459e-06	2.904021e-07
1.513248	-1.559327e-06	-4.861339e-06	-7.530836e-07	1.257358e-07
1.514249	1.660817e-06	-1.074854e-06	-1.126418e-06	5.189161e-07
1.515249	2.318086e-06	1.078203e-06	-5.012496e-07	4.733288e-06
1.516250	1.129766e-06	1.107057e-06	1.981069e-06	9.407998e-06
1.517251	8.631564e-07	7.929570e-07	7.980487e-07	8.635147e-06
1.518251	-2.102926e-07	9.199154e-07	4.392171e-07	2.036752e-06
1.519252	1.328291e-06	1.759121e-06	6.062178e-07	-1.239364e-06
1.520252	-9.680074e-07	1.623126e-06	-7.236554e-07	7.711635e-06
1.521253	-6.292489e-06	4.039668e-06	-5.665846e-07	9.877242e-06
1.522253	-3.207237e-06	2.871972e-06	-7.836366e-07	3.451787e-07
1.523254	7.452186e-07	-1.703410e-06	-1.611018e-06	6.684319e-06
1.524254	5.987076e-07	-1.543491e-06	1.743902e-07	2.327972e-05
1.525255	1.721474e-06	-1.445543e-06	2.858433e-06	2.631775e-05
1.526255	3.567151e-06	-2.995135e-06	9.805861e-07	1.814889e-05
1.527256	5.397785e-06	-2.628693e-06	-2.760360e-06	1.027893e-05
1.528256	4.279127e-06	-2.433601e-06	-2.468023e-06	4.180565e-06
1.529257	1.647268e-06	-1.247119e-06	-1.594360e-06	-1.332397e-05
1.530257	5.640489e-08	3.347548e-06	-1.637726e-06	-4.603887e-05
1.531258	-2.785542e-06	1.418770e-06	9.920002e-07	-6.270977e-05
1.532258	-3.552923e-06	-3.268680e-06	1.802274e-06	-4.010713e-05
1.533259	-2.850005e-06	6.336058e-06	9.605597e-08	-9.973481e-06
1.534259	-1.765470e-06	1.240530e-05	2.033982e-06	-6.065336e-07
1.535260	1.985536e-06	7.140456e-07	2.505953e-06	1.465858e-06
1.536261	2.006044e-06	-5.508822e-06	1.669090e-06	3.486458e-06
1.537261	-1.260321e-06	-7.526070e-07	2.789989e-06	5.865457e-06
1.538262	-4.947957e-08	1.759753e-06	-7.481922e-08	1.035839e-05
1.539262	1.563125e-06	5.039783e-06	-7.692633e-07	7.147912e-06
1.540263	3.969475e-07	9.841787e-06	7.668082e-07	-1.309454e-07
1.541263	9.913735e-07	5.191672e-06	-1.463432e-06	4.559459e-06
1.542264	3.587649e-07	-3.523730e-06	-6.115331e-07	1.543567e-05
1.543264	-3.066342e-06	-2.941736e-06	-6.329474e-08	1.498465e-05
1.544265	-2.521181e-06	2.257141e-06	-1.667421e-06	3.189861e-06
1.545265	-4.407191e-08	9.140009e-07	-3.750446e-07	-6.340170e-06
1.546266	-1.307293e-06	-4.345391e-06	5.928801e-07	-7.073566e-06
1.547266	-3.135851e-06	-2.508557e-06	1.008620e-06	-6.490560e-06
1.548267	-2.540106e-06	1.923877e-06	4.000746e-07	-1.236969e-06
1.549267	-1.890185e-06	2.670438e-09	-1.239705e-06	1.292234e-05
1.550268	-2.813666e-06	-1.230374e-06	-8.189266e-07	1.703354e-05
1.551268	-2.059785e-06	7.400338e-06	1.199307e-06	1.051334e-05
1.552269	9.987533e-07	1.362602e-05	2.633607e-06	7.102141e-06
1.553269	2.619111e-06	3.373205e-07	2.360638e-07	3.193967e-06
1.554270	1.917789e-06	-1.163229e-05	-2.475008e-06	-1.718348e-06
1.555270	1.314370e-06	-9.566944e-06	-2.061152e-06	-3.779322e-06
1.556271	3.227123e-06	-1.644045e-05	-3.098333e-06	-5.488982e-06
1.557272	2.678925e-06	-2.943905e-05	-2.650125e-06	-7.518963e-06
1.558272	-4.574339e-07	-3.252911e-05	2.608547e-07	-4.131533e-06
1.559273	6.622317e-07	-2.646954e-05	-1.044768e-06	1.519892e-06
1.560273	2.848788e-06	-1.324095e-05	-3.276676e-06	1.716252e-06
1.561274	3.666380e-06	3.676400e-06	-1.753551e-06	1.461296e-06
1.562274	2.098813e-06	1.153079e-05	1.065489e-06	2.039614e-06
1.563275	-7.272501e-07	5.943881e-06	1.926034e-06	-6.625554e-07
1.564275	-1.770850e-06	2.269887e-05	1.942267e-07	-2.530834e-06
1.565276	-4.637377e-06	5.998286e-05	-1.071869e-07	-3.873724e-07
1.566276	-4.716264e-06	5.052415e-05	2.480688e-06	1.616702e-06
1.567277	-7.646848e-07	1.169597e-05	3.014298e-06	5.397212e-07
1.568277	1.198280e-06	3.442227e-06	5.073729e-07	-5.594628e-07
1.569278	-4.018394e-07	4.683943e-06	-7.055294e-07	-8.898235e-07
1.570278	-3.157619e-06	-2.596046e-06	-3.046066e-07	-1.370135e-06
1.571279	1.228638e-06	-8.030974e-06	9.805500e-07	3.656844e-07
1.572279	2.470671e-06	-1.198308e-05	3.427758e-06	-1.164402e-07
1.573280	-2.775029e-06	-1.157717e-05	4.891029e-06	-3.671086e-06
1.574280	7.401118e-07	-1.003434e-05	4.080641e-06	-2.523327e-06
1.575281	3.088059e-06	-9.649586e-06	2.617517e-06	1.077679e-07
1.576282	2.129539e-06	-8.092014e-06	2.066574e-06	7.208859e-07
1.577282	5.438787e-06	-6.980718e-06	6.032241e-07	-2.035495e-08
1.578283	4.777769e-06	-3.494363e-06	-4.937405e-07	-1.917859e-06
1.579283	1.928523e-06	3.248036e-07	7.106066e-07	-1.992397e-06
1.580284	1.233104e-06	-2.639723e-06	-8.421028e-07	-2.753567e-06
1.581284	1.339796e-06	-7.866862e-06	-5.361972e-06	-4.267009e-06
1.582285	-1.518648e-07	-3.050635e-06	-6.914537e-06	-4.602413e-06
1.583285	-4.857923e-06	5.536102e-06	-4.900192e-06	-3.119449e-06
1.584286	-7.119353e-06	2.828747e-06	-2.646371e-06	-2.725768e-07
1.585286	-3.726743e-06	-1.892958e-06	-7.537773e-07	1.698261e-06
1.586287	-3.885204e-07	-8.815339e-07	-6.970543e-07	5.164253e-06
1.587287	-4.265095e-08	-8.895452e-07	-2.228065e-06	3.362017e-06
1.588288	-1.758385e-06	-1.173149e-06	2.847768e-06	-2.407346e-06
1.589288	-7.779412e-06	6.750775e-07	8.314831e-06	-3.890362e-07
1.590289	-1.136684e-05	4.655638e-06	3.415939e-06	1.915439e-06
1.591289	-6.053019e-06	6.578127e-06	1.664445e-06	1.080482e-06
1.592290	1.176772e-06	3.382692e-06	6.475409e-06	-3.195802e-07
1.593290	3.849779e-06	1.018951e-06	4.319292e-06	-1.430549e-06
1.594291	3.305502e-06	1.213510e-06	-2.397837e-06	3.122950e-06
1.595291	5.360475e-06	5.469083e-07	-7.035205e-06	4.967046e-06
1.596292	6.251876e-06	1.026292e-06	-9.229713e-06	8.864553e-07
1.597293	3.673626e-06	3.334206e-06	-7.261271e-06	9.572832e-07
1.598293	5.204375e-06	1.195541e-06	-3.106890e-06	3.388715e-06
1.599294	8.115431e-06	-2.078511e-06	-1.047008e-06	2.326288e-06
1.600294	6.531106e-06	1.956280e-06	1.619913e-07	1.809892e-08
1.601295	3.340053e-06	3.891402e-06	1.532629e-06	3.619828e-07
1.602295	3.208066e-06	-1.802761e-07	2.701811e-06	1.144442e-06
1.603296	1.975003e-06	6.284597e-07	3.130724e-06	-4.713214e-07
1.604296	-4.564931e-06	2.092519e-06	-3.083264e-06	-1.728910e-06
1.605297	-1.135151e-05	1.770394e-06	-9.141494e-06	-1.089340e-06
1.606297	-1.257396e-05	3.713219e-06	-2.783090e-06	-9.954000e-07
1.607298	-4.713309e-06	2.143171e-06	4.177032e-06	-2.267060e-06
1.608298	1.952695e-06	-3.637849e-07	3.151044e-06	-1.894233e-06
1.609299	1.404002e-06	-1.154594e-06	2.182083e-06	-7.346904e-07
1.610299	3.704586e-06	6.410473e-07	3.016414e-06	-4.806785e-07
1.611300	3.670950e-06	-3.923003e-06	4.390248e-06	-5.878903e-07
1.612300	-1.771714e-06	-2.547638e-05	3.620659e-06	-3.827664e-06
1.613301	-2.504300e-06	-4.120636e-05	9.984325e-07	-3.680772e-06
1.614301	-4.272328e-07	-4.148720e-05	1.433521e-06	1.721047e-06
1.615302	-7.796824e-07	-3.695515e-05	1.313874e-06	1.494932e-06
1.616303	-2.216219e-06	-3.816301e-05	3.874922e-07	-2.157501e-07
1.617303	-2.387128e-06	-3.375464e-05	4.473712e-07	6.838662e-07
1.618304	-6.164079e-07	-8.101698e-06	-1.226192e-06	1.077752e-06
1.619304	1.664986e-06	2.329011e-05	-6.103391e-07	1.277672e-06
1.620305	1.105314e-06	8.929470e-05	-1.349890e-07	-1.210012e-07
1.621305	9.674503e-09	1.285740e-04	-1.759909e-06	9.601643e-07
1.622306	2.270255e-06	5.969027e-05	1.682680e-07	1.714173e-06
1.623306	1.999533e-06	9.657290e-06	2.794237e-06	-6.490335e-07
1.624307	5.523709e-08	1.471846e-05	3.170831e-06	1.385840e-06
1.625307	-1.083632e-07	2.980662e-06	1.697122e-06	2.552221e-06
1.626308	-2.369979e-06	-2.857026e-06	9.560258e-07	1.060450e-06
1.627308	-2.209571e-06	-5.275513e-06	4.955269e-07	2.034627e-06
1.628309	9.634794e-07	-1.156425e-05	-5.064318e-06	-1.156754e-07
1.629309	1.259152e-06	-1.312615e-05	-9.841855e-06	-3.041108e-06
1.630310	7.802441e-07	-1.471119e-05	-6.976190e-06	-9.104191e-07
1.631310	1.260476e-06	-1.233606e-05	-2.066815e-06	-1.117789e-07
1.632311	2.058268e-07	-1.189999e-05	1.215509e-06	-2.928948e-06
1.633311	-2.408140e-06	-1.210885e-05	5.437056e-06	-5.884576e-07
1.634312	-1.433222e-06	-1.063707e-05	7.696076e-06	3.983531e-06
1.635312	1.634011e-06	-9.958095e-06	5.339902e-06	1.439065e-07
1.636313	3.967199e-07	-8.937369e-06	1.994998e-06	-2.506812e-06
1.637314	-1.694823e-06	-9.127013e-06	-4.797879e-07	1.689915e-06
1.638314	-1.890960e-06	-6.627996e-06	-6.174047e-07	2.470292e-06
1.639315	-7.294006e-07	-3.683957e-06	4.997359e-07	1.780248e-06
1.640315	1.631343e-06	-4.914772e-06	1.520253e-07	1.985768e-06
1.641316	2.364700e-06	-4.546330e-06	-9.569419e-07	-4.021171e-07
1.642316	2.100103e-06	-3.218685e-06	-3.395886e-06	-2.233995e-06
1.643317	5.824366e-07	-3.513208e-06	-4.813804e-06	-1.330247e-06
1.644317	-7.328499e-07	-2.816056e-06	-2.445076e-06	-7.203047e-07
1.645318	8.210264e-07	-4.527726e-06	5.064385e-07	-2.144377e-06
1.646318	1.166709e-06	-8.132215e-06	3.696037e-06	-1.858828e-06
1.647319	9.378179e-07	-7.754707e-06	5.808494e-06	-1.052979e-06
1.648319	1.247708e-06	-2.089031e-06	3.011974e-06	-2.332178e-06
1.649320	-1.950327e-07	4.419219e-06	-2.310542e-07	-1.039937e-06
1.650320	-1.275108e-06	4.766625e-06	-2.391567e-06	-3.310107e-07
1.651321	-9.811576e-07	4.029641e-06	-6.541667e-06	-2.913290e-06
1.652321	5.331552e-07	6.697183e-06	-8.770641e-06	-2.206746e-06
1.653322	1.716633e-06	9.091145e-06	-8.034647e-06	2.685747e-07
1.654322	6.630404e-08	1.085384e-05	-1.322048e-06	1.624806e-06
1.655323	-6.947283e-07	1.066255e-05	1.099287e-05	3.446480e-06
1.656324	2.284327e-06	1.250602e-05	1.219369e-05	3.480432e-06
1.657324	2.275725e-06	1.208590e-05	5.150224e-06	3.125644e-06
1.658325	-1.744097e-06	3.489625e-06	3.652256e-06	4.698160e-06
1.659325	-1.548302e-06	-2.634435e-06	2.147548e-06	3.799847e-06
1.660326	-2.473482e-07	-1.066186e-05	-2.620964e-06	-3.823715e-07
1.661326	-2.557651e-06	-2.241552e-05	-9.087442e-06	-1.282610e-06
1.662327	-1.999031e-06	-2.313769e-05	-1.125159e-05	-5.216486e-07
1.663327	7.240469e-07	-2.468418e-05	-7.910153e-06	-3.737382e-06
1.664328	3.514463e-07	-2.824314e-05	-3.468707e-06	-4.389139e-06
1.665328	-1.745703e-06	-5.763193e-06	1.930721e-06	-3.601427e-06
1.666329	-3.054492e-06	1.275266e-05	-3.582417e-06	-6.448818e-06
1.667329	-6.458734e-07	3.530397e-06	-1.161234e-05	-5.556872e-06
1.668330	9.668383e-07	2.547272e-05	-2.834819e-06	-2.468405e-06
1.669330	-2.138584e-06	6.970710e-05	9.233132e-06	1.931894e-07
1.670331	-2.727096e-06	7.048562e-05	1.271909e-05	3.148333e-06
1.671331	-4.534028e-07	3.761329e-05	9.152618e-06	3.360467e-06
1.672332	1.068293e-06	-2.512598e-08	3.326937e-06	6.625668e-06
1.673332	7.465227e-07	-2.528613e-05	1.985087e-06	9.360895e-06
1.674333	-1.670785e-06	-2.674902e-05	1.961479e-06	5.990653e-06
1.675334	-1.983190e-06	-1.965015e-05	-1.494109e-06	5.507549e-06
1.676334	-6.483544e-07	-1.239362e-05	-4.572416e-06	4.178958e-06
1.677335	1.054189e-06	-5.737167e-06	-1.028453e-06	-7.714538e-07
1.678335	2.389310e-06	-4.761620e-06	5.327030e-06	-1.299950e-06
1.679336	6.102243e-07	-6.336170e-06	5.863055e-06	-2.159081e-06
1.680336	-6.225862e-07	-8.609975e-06	1.872473e-06	-4.217727e-06
1.681337	-3.249060e-08	-1.089408e-05	2.837698e-06	-2.850068e-06
1.682337	1.777729e-06	-1.065014e-05	9.686128e-06	-3.060498e-06
1.683338	4.549594e-06	-9.146819e-06	1.026360e-05	-3.438665e-06
1.684338	2.408370e-06	-9.818019e-06	2.171066e-06	-4.209583e-07
1.685339	-3.220719e-07	-1.335823e-05	-4.905099e-06	-1.381907e-07
1.686339	1.201061e-06	-1.471138e-05	-6.432386e-06	-4.180453e-06
1.687340	2.911006e-07	-1.085395e-05	-6.458916e-06	-5.219256e-06
1.688340	2.685153e-07	-4.970603e-06	-9.074633e-06	-1.262107e-06
1.689341	2.099495e-06	3.112533e-07	-1.030319e-05	8.297677e-07
1.690341	-4.200648e-07	5.360225e-06	-8.643149e-06	-3.522920e-07
1.691342	1.559526e-07	8.678170e-06	-5.264823e-06	-1.093901e-06
1.692342	1.913135e-06	1.326064e-05	2.032250e-07	-1.831923e-06
1.693343	-2.421382e-06	1.970250e-05	1.365464e-07	-5.107133e-07
1.694343	-1.613867e-06	1.842117e-05	-4.364131e-06	2.758051e-06
1.695344	2.662022e-06	1.256583e-05	-8.268371e-07	2.333863e-06
1.696345	1.073541e-06	6.782359e-06	4.880182e-06	1.696328e-06
1.697345	-6.873297e-07	-4.089285e-07	3.868066e-06	2.854960e-06
1.698346	1.626125e-07	-1.928378e-06	2.637937e-06	1.317841e-06
1.699346	2.734150e-06	1.264528e-06	1.033335e-06	2.304625e-06
1.700347	-3.652013e-07	2.650266e-06	-9.947856e-07	2.826103e-06
1.701347	-9.855372e-06	2.488771e-06	1.727262e-06	-1.753896e-06
1.702348	-9.706847e-06	1.395141e-06	3.534030e-06	1.603692e-07
1.703348	-1.922869e-06	-1.926855e-07	3.415974e-06	3.327662e-06
1.704349	1.436368e-06	-1.370154e-06	6.051856e-06	3.925128e-07
1.705349	8.727637e-07	-4.825696e-06	6.662874e-06	-1.242922e-07
1.706350	7.031909e-07	-7.550870e-06	5.733827e-06	-4.094682e-07
1.707350	3.869960e-06	-4.610326e-06	3.873098e-06	-5.019438e-07
1.708351	5.347922e-06	-5.038861e-06	-4.619628e-06	5.013756e-07
1.709351	2.416879e-06	-8.047930e-06	-9.333828e-06	-1.294062e-06
1.710352	-3.178356e-07	-5.921831e-06	-5.044454e-06	-6.855831e-07
1.711352	-2.469691e-06	-2.991352e-06	-4.288452e-06	1.308778e-06
1.712353	-2.926270e-06	1.105793e-06	-6.269310e-06	2.337671e-07
1.713353	-2.376566e-06	4.426024e-06	-5.266530e-06	-7.058103e-07
1.714354	-3.532592e-06	3.700889e-06	-3.448827e-06	-9.282115e-07
1.715355	-1.774849e-06	1.463249e-06	-7.899118e-07	-2.867997e-06
1.716355	2.653143e-06	-1.786331e-06	3.045894e-06	-3.889907e-06
1.717356	4.147056e-06	-1.409708e-06	5.195243e-06	5.736945e-07
1.718356	4.853660e-06	1.446803e-06	5.315604e-06	4.775312e-06
1.719357	4.350167e-06	-3.400515e-07	7.098161e-06	2.795622e-06
1.720357	-3.149224e-08	-5.049922e-07	5.424648e-06	-1.827255e-07
1.721358	-3.146859e-06	3.106172e-06	-4.559491e-06	-1.097967e-06
1.722358	-4.267282e-06	-1.372360e-06	-1.055974e-05	-1.700425e-06
1.723359	-3.672197e-06	-4.913020e-06	-5.313202e-06	-1.347293e-06
1.724359	9.924600e-07	-1.978315e-07	4.406565e-06	-1.701400e-07
1.725360	8.550809e-07	-4.169100e-06	1.151640e-05	-7.732414e-07
1.726360	-3.191185e-06	-7.833013e-06	1.036804e-05	-1.426156e-06
1.727361	-7.721383e-07	-3.652280e-06	7.170323e-06	6.355941e-07
1.728361	2.183203e-06	1.006489e-06	7.365417e-06	1.838940e-06
1.729362	3.208840e-06	1.392066e-05	-1.135161e-06	-4.905528e-07
1.730362	4.061925e-06	1.431626e-05	-8.256611e-06	-4.092887e-06
1.731363	2.184859e-06	-3.153837e-06	2.163269e-06	-4.401987e-06
1.732363	1.610625e-06	8.669447e-07	1.546457e-06	-5.726659e-07
1.733364	1.660454e-06	1.829291e-05	-1.065168e-05	6.984295e-07
1.734364	-2.267252e-07	1.352935e-05	3.554486e-07	-1.035621e-06
1.735365	-1.898908e-06	-3.194403e-06	1.057509e-05	-1.145616e-06
1.736366	-3.049608e-06	-7.992783e-06	-1.482415e-06	-9.258373e-07
1.737366	-3.179145e-06	-4.967188e-06	-1.083381e-05	-1.001566e-06
1.738367	-2.847852e-06	-2.483465e-06	-1.518327e-05	-4.793679e-07
1.739367	-1.946218e-06	4.040534e-07	-1.896947e-05	2.822494e-06
1.740368	1.212094e-06	-1.658127e-06	-1.613592e-05	4.443160e-06
1.741368	3.806200e-06	-5.482116e-06	-1.021720e-05	2.326104e-06
1.742369	3.787385e-06	-3.192046e-06	-1.021931e-06	6.822003e-06
1.743369	3.568095e-06	-3.338812e-06	9.587345e-06	9.332198e-06
1.744370	9.768790e-07	-5.041321e-06	1.185775e-05	3.486262e-06
1.745370	-1.790741e-06	-8.409538e-07	7.851964e-06	1.289578e-06
1.746371	-6.466848e-07	-2.157172e-07	5.743888e-06	1.525246e-06
1.747371	-4.078144e-06	-1.948441e-06	4.875042e-06	2.116008e-06
1.748372	-8.117563e-06	1.415432e-06	3.198920e-06	4.722731e-07
1.749372	-3.961256e-06	1.941355e-06	8.584280e-07	-3.673637e-06
1.750373	-5.494226e-07	-2.770699e-08	1.586414e-06	-2.271189e-06
1.751373	1.080230e-06	1.217261e-06	3.745804e-06	-1.110665e-06
1.752374	1.983042e-06	2.375187e-06	7.034242e-08	-4.349079e-06
1.753374	-5.541473e-07	3.229230e-06	-1.096969e-06	-6.227522e-06
1.754375	4.112052e-07	3.789648e-06	4.676161e-06	-5.780538e-06
1.755376	2.585758e-06	1.329466e-06	7.774198e-06	-3.378883e-06
1.756376	2.508244e-06	-9.082114e-07	4.209884e-06	-1.486696e-06
1.757377	3.202622e-06	-2.121844e-07	-4.514749e-06	-1.850255e-06
1.758377	1.684002e-06	-1.201481e-06	-3.968531e-06	-8.739328e-07
1.759378	1.477936e-06	-6.271637e-06	5.480357e-06	1.016000e-06
1.760378	2.014811e-06	-7.400129e-06	1.870683e-06	9.030987e-08
1.761379	-6.480750e-07	-1.050118e-06	-1.461961e-06	-2.349904e-06
1.762379	-1.250125e-06	1.934933e-06	4.223962e-06	-1.875285e-06
1.763380	-2.105607e-06	6.981606e-07	-1.462748e-06	6.166808e-07
1.764380	-2.012560e-06	3.165269e-06	-6.306327e-06	-3.258915e-07
1.765381	5.184341e-07	4.693467e-06	-1.484947e-06	7.991595e-07
1.766381	-8.898690e-07	1.222484e-06	1.855166e-06	5.518155e-06
1.767382	-1.236643e-06	-2.152597e-06	3.998352e-06	3.511674e-06
1.768382	6.460579e-08	-2.163463e-06	2.261217e-07	-2.100497e-07
1.769383	-1.792366e-06	-3.387558e-06	-3.740328e-06	-1.236084e-06
1.770383	-2.882260e-06	-8.352660e-06	-2.693172e-06	-2.465243e-06
1.771384	-1.116176e-06	-1.079791e-05	-3.260387e-06	-1.695006e-07
1.772384	2.441456e-06	-1.222653e-05	-2.143521e-06	1.256012e-06
1.773385	2.691251e-06	-1.896863e-05	-1.579703e-06	-4.611055e-07
1.774386	7.716908e-09	-1.966226e-05	-2.799798e-06	-6.837192e-07
1.775386	2.436733e-07	-1.836847e-05	-4.826895e-06	-6.219327e-07
1.776387	-3.960300e-07	-2.203569e-05	-9.521929e-06	1.146879e-07
1.777387	-1.464658e-06	2.311198e-05	-7.328393e-06	2.991376e-06
1.778388	-1.672330e-07	9.109559e-05	9.076597e-07	6.434471e-06
1.779388	-3.139607e-07	7.021998e-05	5.505563e-06	9.291717e-06
1.780389	-5.568842e-07	9.259295e-06	9.193226e-06	9.451127e-06
1.781389	-6.764891e-07	-2.622600e-06	1.150082e-05	4.758451e-06
1.782390	-1.673271e-06	4.809182e-07	7.046196e-06	-1.458449e-06
1.783390	-3.439835e-07	-9.506225e-07	3.457164e-06	-3.400766e-06
1.784391	1.435959e-06	-1.770069e-06	7.001988e-06	-1.572397e-06
1.785391	1.335015e-06	-6.667521e-06	4.525720e-06	-1.586000e-06
1.786392	1.352004e-06	-8.158089e-06	-2.513319e-06	-3.477843e-06
1.787392	2.227043e-06	-7.972510e-06	5.058319e-06	-2.935907e-06
1.788393	6.213756e-06	-6.320030e-06	1.513431e-05	-7.086759e-07
1.789393	9.445093e-06	-2.803217e-06	-3.330727e-07	2.857327e-07
1.790394	3.444722e-06	-4.921111e-06	-2.983727e-05	-1.546977e-06
1.791394	-4.887307e-06	-1.220965e-05	-2.993423e-05	-3.835623e-06
1.792395	-6.756049e-06	-1.511731e-05	-5.021275e-06	-2.816466e-06
1.793395	-3.922219e-06	-1.010741e-05	-4.757533e-07	-1.329522e-06
1.794396	-8.142167e-07	-8.483855e-06	-3.979133e-06	-3.308654e-06
1.795397	-2.847725e-06	-1.382859e-05	4.813259e-06	-6.667830e-06
1.796397	-4.908504e-06	-1.792008e-05	-1.204396e-06	-6.824593e-06
1.797398	-1.537098e-06	-2.215359e-05	-1.262830e-05	-5.543815e-06
1.798398	7.366886e-07	-1.610741e-05	-4.028857e-06	-3.926916e-06
1.799399	1.026784e-06	1.496762e-05	7.630467e-06	8.685107e-07
1.800399	1.576531e-06	3.658151e-05	1.176938e-05	4.141041e-06
1.801400	1.251763e-06	2.100052e-05	1.188962e-05	4.969669e-06
1.802400	1.691432e-07	3.951789e-06	6.001055e-06	4.921175e-06
1.803401	-1.026572e-06	5.366366e-06	5.913895e-07	2.885429e-06
1.804401	-5.567871e-07	7.819300e-06	1.335640e-07	2.567752e-06
1.805402	4.036793e-09	4.807070e-06	-3.162372e-07	1.060500e-06
1.806402	-2.664939e-07	2.958295e-08	-1.243178e-07	-1.379873e-06
1.807403	4.802918e-07	-5.081332e-06	4.369796e-06	-4.803505e-07
1.808403	4.405374e-07	-1.577117e-05	6.026205e-06	-5.342114e-07
1.809404	-1.027497e-06	-2.937041e-05	2.184624e-06	-8.289074e-07
1.810404	-2.560286e-06	-2.939620e-05	2.358492e-06	7.860262e-07
1.811405	-2.373632e-06	-2.180860e-05	4.411752e-06	8.742973e-07
1.812405	6.036011e-07	-1.600290e-05	2.666186e-06	-2.366471e-06
1.813406	2.012143e-06	5.967474e-06	9.930113e-07	-2.129917e-06
1.814407	1.764163e-07	1.228388e-05	7.151790e-07	3.899950e-06
1.815407	8.296694e-07	5.174135e-06	3.340710e-07	5.410225e-06
1.816408	3.756773e-06	5.784162e-05	-7.206560e-07	3.793202e-06
1.817408	3.686631e-06	8.764448e-05	-2.116319e-06	4.980163e-06
1.818409	1.174541e-06	3.346628e-05	-3.971962e-06	5.323868e-06
1.819409	-7.493972e-09	1.409754e-06	-5.407677e-06	2.361198e-06
1.820410	2.109725e-06	-3.433930e-06	-6.340409e-06	-1.643660e-06
1.821410	2.773014e-06	-1.432116e-05	-8.772803e-06	-2.760702e-06
1.822411	-4.021146e-07	-1.539245e-05	-6.973411e-06	-4.629101e-07
1.823411	-2.562457e-06	-1.718543e-05	-8.008966e-07	7.036895e-06
1.824412	-3.871369e-06	-1.706801e-05	5.991370e-07	1.485315e-05
1.825412	-4.088688e-06	-1.460776e-05	-1.017197e-06	1.265049e-05
1.826413	-1.254782e-06	-1.149665e-05	-3.196799e-06	2.995500e-06
1.827413	1.944082e-06	-1.254282e-05	-1.880012e-06	-7.759399e-06
1.828414	1.592284e-06	-1.903134e-05	5.841054e-06	-1.417841e-05
1.829414	-1.875996e-06	-1.361066e-05	6.853779e-06	-1.498365e-05
1.830415	-3.007465e-06	-1.003857e-05	3.554312e-06	-1.670400e-05
1.831415	-1.950280e-06	-1.748677e-06	5.659970e-06	-1.528048e-05
1.832416	-1.065778e-06	2.670558e-05	4.718958e-06	-7.120550e-06
1.833416	-3.356731e-07	2.876860e-05	2.696827e-06	-8.735787e-06
1.834417	-2.575655e-07	4.270459e-06	3.928206e-06	-1.705210e-05
1.835418	4.315159e-07	-1.527814e-06	2.025758e-06	-6.968028e-06
1.836418	-1.446441e-08	7.022727e-07	-1.754040e-06	1.145102e-05
1.837419	-1.495934e-07	-6.316532e-07	-5.928910e-07	1.899405e-05
1.838419	2.002627e-06	1.523715e-06	8.012446e-06	1.918004e-05
1.839420	1.035620e-06	-7.187758e-07	1.541610e-05	1.571306e-05
1.840420	-4.547152e-07	-2.914616e-06	1.310406e-05	1.349131e-05
1.841421	3.236116e-07	4.165762e-06	4.437206e-06	1.168782e-05
1.842421	-1.146572e-07	9.194844e-06	-5.085005e-06	6.403764e-06
1.843422	5.448417e-07	4.080216e-06	-1.508570e-05	-4.757773e-06
1.844422	1.696730e-06	-2.152548e-06	-2.569144e-05	-1.742217e-05
1.845423	2.788660e-06	-3.301087e-06	-2.619438e-05	-1.749899e-05
1.846423	4.124722e-06	-1.691557e-06	-1.330573e-05	-1.242385e-05
1.847424	2.257392e-06	-2.532312e-06	-7.403987e-06	-1.183811e-05
1.848424	5.754773e-07	-6.788994e-06	-1.649121e-05	-1.239158e-05
1.849425	2.623328e-07	-6.799963e-06	-1.970063e-05	-7.416759e-06
1.850425	-1.967204e-07	-1.415400e-06	-6.223276e-06	1.005644e-05
1.851426	9.026960e-07	-1.792656e-06	8.883165e-06	2.236390e-05
1.852426	1.230249e-06	-1.151049e-05	1.839249e-05	2.499083e-05
1.853427	4.297018e-07	-1.534085e-05	2.617373e-05	2.737857e-05
1.854428	-1.108467e-06	-7.111452e-06	2.731553e-05	2.334079e-05
1.855428	-3.957084e-06	2.034435e-06	2.092420e-05	1.510420e-05
1.856429	-4.739004e-06	8.402017e-06	1.174396e-05	-2.534525e-06
1.857429	-2.995791e-06	7.841752e-06	2.602436e-06	-1.570138e-05
1.858430	-2.649169e-06	3.944584e-06	-3.278954e-06	-1.492282e-05
1.859430	-3.811326e-06	4.057510e-06	-7.049993e-06	-2.767150e-05
1.860431	-2.941175e-06	-1.613249e-06	-7.297461e-06	-3.311979e-05
1.861431	-1.220805e-06	-6.497730e-06	-4.532502e-06	-1.773612e-05
1.862432	4.975950e-07	-6.327969e-06	-5.245181e-06	-9.060498e-06
1.863432	1.906334e-06	-1.663042e-05	-6.116467e-06	-1.752025e-06
1.864433	-1.907975e-07	-3.121097e-05	-8.812323e-06	4.277295e-06
1.865433	-4.514010e-07	-2.486572e-05	-1.778778e-05	2.933588e-06
1.866434	1.640241e-06	8.413980e-06	-2.193439e-05	-2.197304e-07
1.867434	2.507002e-07	3.087899e-05	-1.429452e-05	-4.924896e-06
1.868435	-3.585901e-08	1.891351e-05	5.393092e-06	-5.219642e-07
1.869435	1.259834e-06	-1.232341e-05	2.684094e-05	1.289206e-05
1.870436	2.872493e-06	-1.301604e-05	3.078520e-05	1.716517e-05
1.871436	5.742252e-06	5.281602e-05	2.115975e-05	1.316261e-05
1.872437	4.868471e-06	7.669888e-05	1.183909e-05	1.286575e-05
1.873437	1.406489e-06	1.120855e-05	6.525651e-06	9.592364e-06
1.874438	-3.855158e-07	-1.653434e-05	5.037569e-06	2.388960e-06
1.875439	-6.500136e-07	4.430657e-06	2.446651e-06	1.894234e-06
1.876439	-2.104529e-06	7.689533e-06	-1.983998e-06	1.653424e-06
1.877440	-4.729253e-06	3.513810e-06	-2.826732e-06	-1.373807e-06
1.878440	-2.151352e-06	1.861086e-06	-1.685418e-06	-4.969755e-07
1.879441	2.180865e-06	-1.275217e-06	-6.662084e-06	2.052686e-06
1.880441	1.711613e-06	-2.628922e-06	-1.285998e-05	1.856189e-06
1.881442	1.013988e-06	-4.817906e-06	-1.148284e-05	-2.114447e-06
1.882442	1.255593e-06	-3.932481e-06	-7.973967e-06	-6.453841e-06
1.883443	1.268140e-06	7.611075e-06	-5.722107e-06	-6.983936e-06
1.884443	6.074456e-07	4.780815e-06	-6.701133e-06	-3.977789e-06
1.885444	-3.281089e-06	-1.652614e-05	-4.585497e-06	-4.021275e-06
1.886444	-5.441386e-06	-1.941145e-05	7.865550e-06	-7.638393e-06
1.887445	-3.378103e-06	-7.393158e-06	9.180419e-06	-4.014569e-06
1.888445	-2.224345e-06	3.115128e-06	-5.495292e-06	-1.004643e-06
1.889446	-1.442190e-06	1.255498e-05	-1.381374e-05	-6.354783e-06
1.890446	2.681680e-07	1.364049e-05	-1.097303e-05	-4.749268e-06
1.891447	1.511493e-06	5.392636e-06	-2.813953e-06	-1.092719e-06
1.892447	1.439345e-06	7.939336e-07	-9.824358e-07	-2.580337e-06
1.893448	5.188805e-07	5.471174e-06	-1.638113e-06	-3.701482e-07
1.894449	2.092899e-06	-1.895404e-05	1.142137e-05	-3.119406e-07
1.895449	4.058273e-06	-8.248201e-05	1.795826e-05	-2.716994e-06
1.896450	1.533056e-06	-1.206934e-04	6.233811e-06	-3.574744e-06
1.897450	-1.039176e-06	-1.087114e-04	1.510316e-07	-6.323404e-06
1.898451	3.238189e-07	-6.574928e-05	7.697900e-07	-4.222843e-06
1.899451	8.477803e-07	-4.549872e-05	-4.707411e-06	6.216608e-06
1.900452	1.048128e-06	-8.025153e-05	-1.002994e-05	1.433188e-05
1.901452	2.510793e-06	-4.752311e-05	-8.030310e-06	1.843189e-05
1.902453	6.033318e-07	8.698786e-05	-6.058223e-06	2.157905e-05
1.903453	-9.694467e-08	1.920601e-04	-4.368203e-06	2.094354e-05
1.904454	-5.194227e-07	2.124072e-04	7.751202e-06	2.779741e-05
1.905454	-5.591339e-06	1.334743e-04	1.916390e-05	2.355708e-05
1.906455	-3.988853e-06	6.918648e-05	2.078279e-05	-2.235929e-06
1.907455	1.148877e-06	1.078811e-04	1.911220e-05	-5.419762e-06
1.908456	9.802639e-07	5.413954e-05	8.100406e-06	-1.209409e-05
1.909456	1.525722e-06	-9.284908e-05	-1.885139e-06	-3.889648e-05
1.910457	-9.043740e-07	-1.239402e-04	-1.596852e-06	-2.803374e-05
1.911457	-4.608441e-06	-7.726899e-05	-7.218657e-06	-1.828980e-06
1.912458	-1.928039e-06	-5.511347e-05	-1.188630e-05	1.128349e-06
1.913459	1.940421e-07	-2.893191e-05	-8.206431e-06	-1.076152e-05
1.914459	5.184238e-07	3.735968e-05	-9.530752e-06	-3.068664e-05
1.915460	2.978025e-06	7.801231e-05	-1.459695e-05	-3.543169e-05
1.916460	2.248764e-06	4.129954e-05	-1.985217e-05	-2.358701e-05
1.917461	-1.196302e-06	1.211883e-05	-2.644085e-05	-1.089921e-05
1.918461	-1.164281e-06	1.991711e-05	-2.649030e-05	4.815751e-06
1.919462	-7.508919e-07	-1.018360e-06	-1.275664e-05	1.733267e-05
1.920462	-2.584505e-06	-4.477906e-05	1.062877e-05	2.294652e-05
1.921463	-3.615702e-06	-5.495015e-05	2.726225e-05	2.775026e-05
1.922463	-2.221805e-06	-4.037922e-05	2.957782e-05	3.155995e-05
1.923464	8.321101e-07	-1.502491e-05	2.618021e-05	3.145037e-05
1.924464	5.860844e-07	9.401772e-06	2.471369e-05	2.401996e-05
1.925465	-2.699571e-06	-3.786320e-05	2.580595e-05	1.271241e-05
1.926465	4.428049e-07	-3.012244e-05	2.149938e-05	4.430975e-06
1.927466	9.017759e-06	1.034428e-04	1.388444e-05	-8.448022e-07
1.928466	1.014394e-05	1.081545e-04	7.589798e-06	-1.195152e-06
1.929467	5.284066e-06	-7.824570e-06	-3.256266e-06	-4.254777e-06
1.930467	3.618064e-06	-8.819260e-05	-1.597458e-05	-1.575410e-05
1.931468	2.758880e-06	-1.174148e-04	-2.584913e-05	-1.558299e-05
1.932468	7.775248e-07	-3.747305e-05	-2.008031e-05	-1.030711e-05
1.933469	-2.428143e-06	3.806477e-05	-8.011738e-06	-1.860701e-05
1.934470	-6.050129e-06	-1.265323e-05	-1.529377e-05	-1.733091e-05
1.935470	-8.093807e-06	-1.100515e-04	-2.169869e-05	-8.735067e-06
1.936471	-1.010083e-05	-1.580577e-04	-2.156496e-05	-1.542388e-05
1.937471	-8.740256e-06	-1.077346e-04	-2.825147e-05	-1.964903e-05
1.938472	-9.058996e-07	-1.858088e-05	-3.057314e-05	-1.386087e-05
1.939472	8.073322e-06	9.911197e-06	-2.007249e-05	-7.107807e-06
1.940473	1.030937e-05	-6.265697e-06	8.320863e-06	5.240400e-06
1.941473	5.198932e-06	2.760123e-05	3.064835e-05	1.700219e-05
1.942474	-1.434482e-06	9.622733e-05	3.389269e-05	1.885601e-05
1.943474	-5.146668e-06	1.284313e-04	4.185020e-05	1.629039e-05
1.944475	-5.072762e-06	1.394934e-04	4.741775e-05	1.501506e-05
1.945475	-3.671187e-06	1.773800e-04	4.404626e-05	1.354110e-05
1.946476	1.227532e-06	2.043608e-04	3.581534e-05	1.137868e-05
1.947476	6.031267e-06	1.101256e-04	1.173742e-05	9.557551e-06
1.948477	2.230349e-06	-6.645383e-06	-1.856471e-05	5.868621e-06
1.949477	-2.435787e-06	-1.166889e-05	-3.486135e-05	2.535368e-06
1.950478	-1.322827e-06	-9.866599e-07	-3.741983e-05	1.957267e-06
1.951478	3.271468e-07	-1.650166e-05	-3.604871e-05	-4.400087e-07
1.952479	1.108035e-06	-4.068821e-05	-2.819903e-05	-3.959302e-06
1.953480	1.805023e-06	-9.605439e-05	-1.337803e-05	-4.631824e-06
1.954480	2.610171e-07	-1.380110e-04	-6.219665e-06	-6.240003e-06
1.955481	3.227587e-07	-1.340387e-04	-1.242261e-05	-1.077916e-05
1.956481	3.080969e-06	-1.223296e-04	-2.235943e-05	-1.269720e-05
1.957482	-4.195010e-08	-1.278653e-04	-2.763712e-05	-1.244389e-05
1.958482	-3.576987e-06	-8.343174e-05	-2.100173e-05	-1.070026e-05
1.959483	7.765179e-07	8.654240e-05	3.997774e-06	-1.859365e-06
1.960483	4.036992e-06	1.949232e-04	3.078116e-05	8.054972e-06
1.961484	2.314200e-07	6.066282e-05	4.072956e-05	1.035226e-05
1.962484	-3.771683e-06	-4.040220e-05	3.828384e-05	6.760028e-06
1.963485	-3.554018e-07	5.040017e-05	2.740582e-05	2.188396e-06
1.964485	2.606500e-06	7.151681e-05	1.868686e-05	8.282832e-07
1.965486	-1.968666e-06	-1.012010e-05	1.694508e-05	3.080554e-07
1.966486	-3.024693e-06	-1.424012e-05	1.036007e-05	-1.646183e-06
1.967487	-9.042720e-07	3.064879e-05	3.576532e-06	-4.051574e-06
1.968487	-3.015459e-06	1.882934e-05	-1.213855e-06	-5.055801e-06
1.969488	-4.982990e-06	-2.485119e-05	-6.294485e-06	-1.371984e-06
1.970488	-3.509551e-06	-3.310780e-05	-8.123743e-06	7.137190e-07
1.971489	2.140599e-06	-2.491279e-05	-1.069380e-05	-3.498867e-06
1.972489	5.112665e-06	-3.305080e-05	-9.519617e-06	-6.685450e-06
1.973490	1.664686e-06	-3.079912e-05	-5.909315e-06	-3.729840e-06
1.974491	3.156561e-07	-3.526763e-05	-5.278962e-06	5.035775e-06
1.975491	2.067833e-06	-4.892941e-05	-6.937126e-06	1.018657e-05
1.976492	1.986471e-06	1.327653e-05	-1.122365e-05	7.790765e-06
1.977492	-1.323824e-06	8.398012e-05	-6.994481e-06	9.896184e-06
1.978493	-5.035813e-06	3.513665e-05	2.284028e-06	1.397845e-05
1.979493	-7.115875e-06	-3.683852e-05	2.899073e-06	1.191214e-05
1.980494	-7.727492e-06	-6.009532e-05	-4.560935e-06	3.846373e-06
1.981494	-2.403821e-06	-1.017117e-04	-8.922770e-06	-9.895649e-06
1.982495	8.616108e-06	-7.781493e-05	-8.330003e-06	-1.472695e-05
1.983495	1.529215e-05	4.267454e-05	-1.828571e-05	-7.443755e-06
1.984496	1.046942e-05	7.323245e-05	-2.175343e-05	-4.052194e-06
1.985496	8.518189e-07	1.000709e-04	-6.135206e-06	-4.906576e-06
1.986497	-2.414389e-06	2.003821e-04	8.877990e-06	1.344315e-06
1.987497	-3.025744e-06	1.077261e-04	1.704902e-05	1.196266e-05
1.988498	-5.722750e-06	-6.651609e-05	1.365327e-05	8.393261e-06
1.989498	-3.360981e-06	-5.747271e-05	9.320524e-06	-5.032220e-06
1.990499	2.092213e-06	1.270192e-06	1.095527e-05	-1.454051e-05
1.991499	2.863307e-06	3.005226e-06	1.053212e-05	-2.579090e-05
1.992500	1.414493e-06	-3.532684e-05	1.050806e-05	-2.453295e-05
1.993501	-2.015415e-07	-6.313409e-05	3.094124e-06	-1.442162e-07
1.994501	-2.250349e-06	-2.727867e-05	-2.041148e-06	2.002629e-05
1.995502	-1.305729e-06	5.284272e-06	4.600589e-06	2.318383e-05
1.996502	1.122962e-06	5.841611e-06	3.982087e-06	2.025413e-05
1.997503	-5.028265e-07	-2.779168e-06	7.330796e-07	1.815986e-05
1.998503	-1.352091e-06	-4.642515e-06	2.796127e-06	1.475616e-05
1.999504	9.659794e-07	4.531771e-05	-3.571957e-06	-9.002097e-06
2.000504	-9.597105e-07	6.707006e-05	-7.323330e-06	-3.506664e-05
2.001505	-1.572735e-06	-1.615223e-05	-2.075583e-06	-2.301257e-05
2.002505	6.976957e-07	-9.440492e-05	-8.307474e-06	-6.889902e-06
2.003506	-2.543796e-06	-1.376744e-04	-2.208620e-06	-1.074520e-05
2.004506	-3.043857e-06	-1.446173e-04	2.526866e-05	-8.815804e-06
2.005507	1.583107e-06	-5.233429e-05	2.622135e-05	-4.872039e-06
2.006507	4.116563e-06	3.129656e-05	8.686867e-06	2.755965e-06
2.007508	6.802203e-06	2.581090e-05	1.794422e-06	1.188762e-05
2.008508	6.043862e-06	-1.220494e-05	-1.256540e-05	9.927619e-06
2.009509	3.121826e-07	1.719940e-05	-3.563207e-05	6.956556e-06
2.010509	-3.905487e-06	1.389623e-04	-4.278033e-05	1.225538e-06
2.011510	-6.658327e-06	1.388963e-04	-3.279506e-05	-2.378477e-06
2.012511	-7.800348e-06	8.002310e-05	-1.914226e-05	8.600142e-08
2.013511	-6.874752e-06	1.455784e-04	-3.515706e-06	-3.217451e-06
2.014512	-5.205543e-06	5.937821e-05	7.410192e-06	8.515086e-07
2.015512	-1.731531e-06	-1.316919e-04	1.116106e-05	1.034085e-05
2.016513	2.492700e-07	-1.100102e-04	1.158596e-05	8.349228e-06
2.017513	-2.802173e-07	-1.122337e-05	1.013952e-05	8.584694e-06
2.018514	2.185709e-06	4.485671e-05	2.003513e-05	1.610862e-05
2.019514	6.985997e-06	5.832174e-05	3.165246e-05	1.844185e-05
2.020515	9.791148e-06	-5.791261e-06	2.688091e-05	1.902347e-05
2.021515	6.187192e-06	-7.260782e-05	1.382748e-05	2.099785e-05
2.022516	-3.447359e-06	-8.112838e-05	5.471831e-06	9.317853e-06
2.023516	-6.478128e-06	-1.602343e-05	2.788666e-06	-1.332303e-05
2.024517	-1.791970e-06	5.299303e-05	-1.292969e-05	-2.354747e-05
2.025517	-1.544812e-06	4.295931e-05	-2.825405e-05	-1.964217e-05
2.026518	-1.276952e-06	1.067153e-05	-1.939265e-05	-1.231402e-05
2.027518	2.185748e-06	2.285021e-06	-1.269545e-05	-6.951630e-06
2.028519	8.640702e-07	-1.101954e-05	-1.776486e-05	-5.410510e-06
2.029519	1.769279e-06	-3.976882e-05	-1.917871e-05	-5.938221e-06
2.030520	5.523889e-06	-6.509579e-05	-8.468397e-06	-7.670620e-06
2.031520	2.577044e-06	-6.924382e-05	1.493314e-05	-6.707453e-06
2.032521	3.732141e-07	-5.712726e-05	2.659110e-05	-4.469551e-06
2.033522	2.168576e-06	-4.685602e-05	1.921802e-05	-1.285491e-06
2.034522	4.643701e-06	1.098227e-05	1.347294e-05	1.146044e-05
2.035523	4.980007e-06	1.260192e-04	1.061813e-05	2.007567e-05
2.036523	-2.097271e-06	1.390043e-04	1.008167e-07	8.018994e-06
2.037524	-6.505855e-06	2.973530e-05	-1.407254e-05	-9.909989e-06
2.038524	-4.240613e-06	-5.325443e-05	-2.287368e-05	-2.524377e-05
2.039525	-3.300090e-06	-8.843083e-05	-2.313348e-05	-3.636285e-05
2.040525	-2.103938e-06	-9.387051e-05	-7.165272e-06	-2.748678e-05
2.041526	-2.073339e-06	-6.429579e-05	1.776876e-05	-4.047766e-06
2.042526	-1.157284e-06	-1.641359e-05	2.453434e-05	1.490826e-05
2.043527	3.239174e-06	4.894303e-05	2.126804e-05	2.196784e-05
2.044527	2.984462e-06	1.082230e-04	2.593595e-05	1.598435e-05
2.045528	-6.539896e-08	1.009350e-04	1.559892e-05	8.615559e-06
2.046528	-1.653787e-07	2.140989e-05	-7.721872e-06	6.571286e-06
2.047529	1.179183e-06	-2.450844e-05	-1.792452e-05	5.370228e-06
2.048529	1.582365e-06	5.581189e-06	-2.096000e-05	4.394414e-06
2.049530	-1.271994e-06	2.114999e-05	-1.582750e-05	4.855900e-06
2.050530	-3.809360e-06	8.880742e-06	-5.023980e-06	7.169816e-06
2.051531	-2.278773e-06	1.669761e-05	5.957331e-07	5.701276e-06
2.052532	-2.825219e-06	2.416404e-05	1.505443e-05	2.838917e-06
2.053532	-6.962924e-06	1.513114e-05	2.419102e-05	1.109739e-06
2.054533	-4.171949e-06	-1.425535e-07	5.191632e-06	-1.544017e-06
2.055533	2.388116e-06	-2.105847e-05	-1.774154e-05	1.148449e-05
2.056534	3.126753e-07	-3.130174e-05	-2.263102e-05	3.450048e-05
2.057534	-2.395094e-06	-2.675147e-05	-1.724336e-05	3.995834e-05
2.058535	1.044743e-06	-1.360418e-05	-1.046854e-05	2.363107e-05
2.059535	1.963503e-06	3.414593e-07	-1.029606e-06	-1.181204e-05
2.060536	1.390488e-06	1.755757e-06	6.956793e-06	-4.786289e-05
2.061536	2.152836e-06	8.929523e-06	1.962900e-06	-5.287834e-05
2.062537	3.061121e-07	7.770679e-06	-1.265874e-05	-3.806257e-05
2.063537	-9.670125e-07	1.483659e-05	-9.391077e-06	-3.346347e-05
2.064538	-1.673089e-07	-8.192017e-06	1.396716e-05	-2.156111e-05
2.065538	-4.551331e-09	-1.583273e-04	2.396094e-05	6.139557e-06
2.066539	-1.029644e-06	-2.367032e-04	2.150355e-05	1.558825e-05
2.067539	8.551324e-07	-2.076671e-04	1.625506e-05	1.153254e-05
2.068540	1.198351e-05	-1.031080e-04	-3.199730e-06	1.411801e-05
2.069540	2.214038e-05	2.959929e-04	-3.510013e-05	1.513381e-05
2.070541	1.675832e-05	4.461549e-04	-5.440203e-05	1.319914e-05
2.071541	-1.967607e-06	4.726469e-05	-2.828363e-05	5.911495e-06
2.072542	-1.580514e-05	-1.047613e-04	8.023799e-06	-5.785165e-06
2.073543	-1.074887e-05	1.627761e-05	1.890785e-05	-1.040889e-05
2.074543	-4.294941e-06	-1.171757e-05	3.370408e-05	-9.556113e-06
2.075544	-6.990640e-06	-1.132111e-05	3.418248e-05	-6.863637e-06
2.076544	-6.072140e-06	3.518598e-06	1.670747e-05	-6.058280e-07
2.077545	-4.686294e-06	-6.826949e-06	1.474175e-05	6.185106e-06
2.078545	-4.360458e-06	7.072161e-05	7.806019e-06	6.478462e-06
2.079546	1.172473e-07	8.355011e-05	-7.668168e-06	1.184268e-06
2.080546	3.753810e-06	-3.786590e-05	-1.524322e-05	1.172683e-06
2.081547	5.197807e-06	-1.708918e-04	-1.289581e-05	3.226667e-06
2.082547	3.768398e-06	-1.361202e-04	6.376749e-07	3.340289e-06
2.083548	2.060932e-06	7.152856e-05	1.464508e-05	1.134458e-05
2.084548	2.791744e-06	7.615763e-05	2.293794e-05	2.226148e-05
2.085549	-2.609800e-07	-4.809969e-05	1.026132e-05	3.024971e-05
2.086549	-4.026262e-06	4.441973e-05	-1.837261e-05	3.611606e-05
2.087550	-4.836374e-06	6.986077e-05	-2.908506e-05	2.629716e-05
2.088550	-7.343098e-06	-2.325026e-05	-2.641183e-05	-2.051452e-06
2.089551	-8.653971e-06	-1.457661e-05	-2.244754e-05	-2.043433e-05
2.090551	-4.132018e-06	-5.645776e-05	-1.483108e-05	-1.586830e-05
2.091552	5.752636e-07	-6.826003e-05	1.397132e-06	-2.571675e-05
2.092553	2.903682e-06	6.967373e-05	3.229473e-05	-5.052744e-05
2.093553	1.211039e-05	1.948758e-04	4.360017e-05	-3.998814e-05
2.094554	1.904068e-05	1.568211e-04	1.205873e-05	-1.013906e-05
2.095554	8.226961e-06	-6.899574e-05	-1.699584e-05	2.433053e-07
2.096555	-5.423444e-06	-1.805261e-04	-1.728344e-05	1.880889e-06
2.097555	-8.615724e-06	-8.962302e-05	-1.553948e-05	-1.236836e-07
2.098556	-6.127876e-06	-4.801152e-05	-2.060699e-05	-7.414021e-06
2.099556	-2.513485e-06	-7.107077e-06	-1.778132e-05	-1.180388e-05
2.100557	1.392765e-06	5.928488e-05	-7.490159e-06	-5.996282e-06
2.101557	4.387024e-06	3.833203e-05	-2.380068e-06	7.713322e-06
2.102558	3.299637e-06	9.033344e-06	8.542070e-07	1.288861e-05
2.103558	1.832303e-06	4.908176e-05	1.432665e-05	1.054030e-05
2.104559	-7.037113e-07	6.169038e-05	3.492050e-05	9.891309e-06
2.105559	-4.959714e-06	-3.190897e-05	4.359631e-05	7.072742e-06
2.106560	-4.044563e-06	-7.900937e-05	2.170119e-05	5.238696e-06
2.107560	-3.394446e-06	-2.677688e-05	-7.024195e-06	6.894615e-06
2.108561	-2.304359e-06	-2.769037e-05	-1.006202e-05	1.056894e-05
2.109561	1.836011e-06	-5.336383e-05	-8.263601e-06	1.463858e-05
2.110562	8.750697e-07	-2.619689e-05	-1.809637e-05	1.233673e-05
2.111562	1.402623e-06	-9.382448e-06	-1.044833e-05	8.511062e-06
2.112563	4.261367e-06	-6.835993e-05	2.001122e-05	1.084822e-05
2.113564	1.388287e-06	-1.105611e-04	2.868600e-05	7.614454e-06
2.114564	4.200947e-07	-4.805855e-05	1.310223e-05	-4.696344e-06
2.115565	4.466781e-06	-6.698587e-06	7.037656e-06	-4.800628e-06
2.116565	3.856432e-06	6.130170e-05	-6.883746e-06	7.968540e-06
2.117566	-1.031991e-06	1.987914e-04	-3.427873e-05	1.326707e-05
2.118566	1.380804e-06	1.306051e-04	-3.980127e-05	9.656968e-06
2.119567	5.869254e-06	-5.590867e-05	-1.952223e-05	-1.152681e-06
2.120567	1.220228e-07	-3.615952e-05	7.488848e-07	-1.457287e-05
2.121568	-7.530625e-06	6.761513e-05	1.675485e-06	-2.807861e-05
2.122568	-7.901755e-06	6.973184e-05	1.574664e-06	-4.788267e-05
2.123569	-4.947565e-06	5.602505e-05	1.635486e-05	-4.242613e-05
2.124569	-3.035038e-06	4.183513e-05	6.861794e-06	-2.894213e-06
2.125570	-3.222592e-06	-7.451248e-06	-2.633858e-05	2.135095e-05
2.126570	-4.243927e-06	-3.225208e-06	-2.962729e-05	1.942617e-05
2.127571	-3.053023e-06	3.369784e-05	-8.637030e-06	2.360780e-06
2.128571	4.326401e-08	1.519461e-05	2.330604e-07	-1.530809e-05
2.129572	5.635627e-07	-1.367711e-05	1.071235e-06	-5.461401e-06
2.130572	-2.011746e-06	-2.183258e-05	1.755326e-05	1.029592e-05
2.131573	-1.983932e-07	-2.197004e-05	3.700073e-05	8.221989e-06
2.132574	4.017853e-06	1.692152e-05	2.976578e-05	6.714058e-06
2.133574	-1.000252e-06	3.870201e-05	1.282892e-05	6.967914e-06
2.134575	-5.107115e-06	-3.796176e-05	3.034152e-06	-7.855585e-07
2.135575	-3.377467e-07	-9.457805e-05	-7.027215e-06	-1.049258e-05
2.136576	5.096924e-07	-1.603991e-04	-1.729221e-05	-1.268127e-05
2.137576	6.395840e-06	-3.359656e-04	-2.865064e-05	-3.550805e-06
2.138577	2.257071e-05	-2.069780e-04	-2.495517e-05	3.226323e-06
2.139577	2.535344e-05	1.972725e-04	-2.683310e-07	-2.545142e-06
2.140578	1.137969e-05	1.816789e-04	2.131736e-05	2.210833e-06
2.141578	-5.725613e-06	-6.189307e-05	3.143818e-05	2.669193e-05
2.142579	-1.821620e-05	1.328890e-05	3.109823e-05	3.932733e-05
2.143579	-1.791499e-05	1.980864e-04	2.224046e-05	2.469113e-05
2.144580	-9.986249e-06	1.885044e-04	1.052355e-06	9.428516e-06
2.145580	-3.072825e-06	3.903079e-05	-2.244573e-05	1.454802e-05
2.146581	1.868839e-06	-4.774084e-05	-1.591067e-05	1.677734e-05
2.147581	-3.324247e-07	-3.192470e-05	-1.135443e-06	-1.918077e-06
2.148582	-2.867999e-06	8.832568e-06	-4.911794e-06	-2.024185e-05
2.149582	2.730113e-06	5.167216e-05	-7.738642e-06	-3.084567e-05
2.150583	5.277655e-06	4.845310e-05	-1.515911e-05	-3.527127e-05
2.151584	2.460554e-06	2.890111e-05	-2.378541e-05	-2.477852e-05
2.152584	1.982946e-06	1.873868e-05	-1.613183e-05	-1.478211e-05
2.153585	-4.955989e-07	-1.333624e-05	-7.749195e-06	-1.236214e-05
2.154585	-3.757050e-06	-3.955869e-06	5.959873e-06	-6.051651e-06
2.155586	-2.217004e-06	3.603039e-05	2.929191e-05	-1.910257e-06
2.156586	-3.075652e-06	6.547141e-06	3.316474e-05	-3.533964e-06
2.157587	-4.316889e-06	-5.986533e-05	1.745626e-05	-5.616457e-06
2.158587	-5.737451e-08	-9.310966e-05	-5.022118e-07	-4.203756e-06
2.159588	2.909271e-06	-1.887531e-04	-1.318738e-05	7.891573e-07
2.160588	3.692188e-06	-3.352636e-04	-1.348820e-05	5.543797e-06
2.161589	4.466832e-06	-3.477386e-04	-7.008120e-06	9.391567e-06
2.162589	4.490051e-06	-1.867478e-04	1.540552e-07	1.155084e-05
2.163590	1.239762e-06	7.339439e-05	6.833036e-06	1.095251e-05
2.164590	-3.287474e-06	2.199253e-04	9.144441e-06	8.025894e-06
2.165591	-4.915139e-08	2.761026e-04	8.756299e-06	9.564320e-06
2.166591	5.523923e-06	3.868876e-04	1.633505e-05	1.773459e-05
2.167592	5.567806e-06	2.693027e-04	2.675081e-05	2.559048e-05
2.168592	3.429950e-06	6.545627e-05	1.681005e-05	2.778639e-05
2.169593	-1.245813e-06	7.130537e-05	-8.178779e-06	2.451229e-05
2.170593	-7.038604e-06	3.205608e-05	-3.371208e-05	2.452418e-05
2.171594	-8.621329e-06	-2.868555e-05	-5.339634e-05	1.175316e-06
2.172595	-6.446822e-06	1.291890e-06	-4.391657e-05	-4.858082e-05
2.173595	-3.604245e-06	9.209286e-06	-1.248182e-05	-5.052050e-05
2.174596	-1.275473e-06	-5.326665e-07	1.394034e-05	-1.245891e-05
2.175596	-3.616839e-07	-1.450356e-05	3.357986e-05	-3.088942e-07
2.176597	-3.177222e-06	-2.518897e-05	2.748973e-05	-2.735650e-06
2.177597	-6.191567e-06	-3.707547e-05	2.557214e-06	-3.532085e-06
2.178598	-1.119186e-06	-2.270454e-05	-2.016832e-06	-7.330467e-06
2.179598	5.494666e-06	3.269554e-06	-1.051941e-05	-8.491290e-06
2.180599	5.107002e-06	-5.205379e-05	-3.357554e-05	-8.882239e-06
2.181599	1.682483e-06	-1.093144e-04	-4.041142e-05	-9.741952e-06
2.182600	-2.171728e-06	-1.087593e-04	-4.161814e-05	-1.122008e-05
2.183600	-1.119041e-06	-6.906896e-05	-2.987558e-05	-9.927897e-06
2.184601	5.913972e-06	-5.533874e-05	5.525649e-06	2.948554e-06
2.185601	9.999450e-06	-2.210332e-04	3.441004e-05	1.823987e-05
2.186602	5.222524e-06	-3.196808e-04	4.866300e-05	2.671394e-05
2.187602	-1.215413e-06	-1.083586e-04	5.006844e-05	3.107890e-05
2.188603	3.796411e-06	3.868151e-05	3.230633e-05	2.856484e-05
2.189603	9.186450e-06	-3.636305e-05	6.048224e-06	1.947338e-05
2.190604	2.624929e-06	-9.440348e-05	-2.422673e-06	4.379222e-07
2.191605	-2.613079e-06	5.467343e-06	1.457471e-05	-1.601135e-05
2.192605	-2.278641e-06	3.099910e-04	2.501618e-05	-1.485369e-05
2.193606	-3.825981e-06	4.463740e-04	1.524750e-05	-1.884250e-05
2.194606	-5.074628e-06	2.247428e-04	3.759874e-06	-2.155148e-05
2.195607	-5.620690e-06	1.178159e-04	-4.483621e-06	-1.412723e-05
2.196607	-9.537955e-06	1.488151e-04	-1.758585e-05	-1.985027e-05
2.197608	-9.457970e-06	7.501685e-05	-3.541505e-05	-2.264848e-05
2.198608	-3.166359e-06	1.212161e-05	-3.298014e-05	-1.588110e-05
2.199609	-3.801333e-07	-1.824825e-05	-2.675237e-06	-6.548527e-06
2.200609	1.378721e-06	-6.356850e-05	1.554624e-05	7.654179e-06
2.201610	2.326341e-06	-9.767484e-05	4.402070e-06	5.655548e-06
2.202610	-1.299459e-06	-4.375462e-05	-6.087951e-06	-1.835066e-06
2.203611	-1.094949e-06	6.346789e-05	-1.615409e-06	2.290621e-06
2.204611	1.686902e-06	5.568987e-05	3.126738e-06	6.537869e-06
2.205612	8.774160e-07	-4.706092e-05	5.799163e-06	1.111240e-05
2.206612	6.187919e-07	-7.631985e-05	9.601813e-06	1.149032e-05
2.207613	8.973836e-07	-8.789858e-05	6.716334e-06	1.079157e-05
2.208613	2.504766e-07	-3.537660e-04	3.448965e-06	1.880748e-05
2.209614	2.936014e-06	-4.801090e-04	1.045746e-05	2.768713e-05
2.210614	9.575727e-06	-1.013155e-04	9.615215e-06	3.763833e-05
2.211615	1.382017e-05	1.098320e-04	-5.215899e-06	4.354918e-05
2.212616	1.397022e-05	4.419291e-05	-6.753058e-06	4.150952e-05
2.213616	9.612822e-06	1.426644e-05	-4.259194e-06	3.909319e-05
2.214617	-1.392434e-06	-1.083672e-04	-1.742994e-05	2.214396e-05
2.215617	-3.665341e-06	1.502401e-05	-2.316420e-05	1.086824e-06
2.216618	4.052083e-06	3.516835e-04	-1.468442e-05	-1.799085e-05
2.217618	-8.763773e-07	2.744461e-04	-1.506283e-05	-4.864357e-05
2.218619	-1.214005e-05	2.146786e-06	-2.169314e-05	-3.897740e-05
2.219619	-1.558891e-05	6.638291e-05	-4.310134e-06	3.499308e-06
2.220620	-1.578220e-05	2.371159e-04	2.066672e-05	-1.001242e-06
2.221620	-1.285663e-05	1.738669e-04	1.808329e-05	-4.807427e-05
2.222621	-6.213195e-06	6.495922e-05	3.951286e-06	-8.661110e-05
2.223621	-1.766044e-06	3.334306e-05	-2.485273e-05	-7.573250e-05
2.224622	-1.351557e-06	-1.335878e-05	-5.902264e-05	-3.231806e-05
2.225622	-1.409644e-07	-2.166341e-05	-3.843557e-05	-7.942723e-06
2.226623	1.475717e-06	-2.442917e-05	6.476867e-06	-2.281519e-06
2.227623	1.386864e-06	-7.736906e-05	2.336456e-05	-3.895622e-07
2.228624	1.139994e-06	-7.993162e-05	5.403246e-05	4.495004e-07
2.229624	2.102403e-06	-3.755789e-05	7.542364e-05	2.644504e-06
2.230625	5.747912e-06	-2.410747e-05	3.731933e-05	1.397409e-05
2.231626	5.752487e-06	-4.924555e-05	-7.087212e-06	3.022233e-05
2.232626	1.031108e-06	-9.024127e-05	-2.077472e-05	3.357321e-05
2.233627	2.157722e-06	-9.170813e-05	-1.330572e-05	3.115847e-05
2.234627	6.107514e-06	-8.136311e-05	-3.219331e-06	2.795736e-05
2.235628	6.141316e-06	-1.181037e-04	-3.651833e-06	2.554535e-05
2.236628	8.715296e-06	-1.172595e-04	2.905808e-06	1.908902e-05
2.237629	9.888438e-06	-4.530357e-05	1.802920e-05	-7.004420e-06
2.238629	1.061260e-06	2.196416e-05	2.781807e-05	-1.842314e-05
2.239630	-6.059853e-06	7.434873e-05	8.134629e-06	-4.778802e-07
2.240630	-6.075960e-06	1.149268e-04	-2.299158e-05	7.603907e-06
2.241631	-6.391119e-06	9.459630e-05	-5.486948e-06	4.702254e-06
2.242631	-7.033500e-06	-2.663769e-05	6.979427e-06	2.939704e-06
2.243632	-9.348330e-06	-1.566252e-04	-1.986103e-05	5.370793e-07
2.244632	-8.642689e-06	-3.224780e-04	-1.773100e-05	2.294642e-07
2.245633	3.482912e-06	-3.778136e-04	-8.169414e-06	-9.252748e-07
2.246633	1.856123e-05	-1.701241e-05	-1.892361e-05	-2.383087e-07
2.247634	1.943981e-05	7.047744e-05	-2.380279e-05	7.362814e-07
2.248634	1.039258e-05	-1.977395e-04	-2.168982e-05	-1.221751e-07
2.249635	1.224591e-05	2.021738e-04	-1.719220e-05	4.596730e-06
2.250636	1.205310e-05	6.158307e-04	-7.159125e-06	6.733774e-06
2.251636	-7.723313e-06	3.245196e-04	3.565167e-05	5.290169e-06
2.252637	-2.540917e-05	1.763704e-04	7.921933e-05	7.653134e-06
2.253637	-2.606947e-05	2.646278e-04	6.679226e-05	3.817312e-06
2.254638	-1.664311e-05	1.764063e-04	3.824279e-05	-5.813725e-06
2.255638	-1.016020e-05	7.928449e-05	1.537083e-05	-1.009302e-05
2.256639	-8.738791e-06	2.578644e-05	-1.939078e-05	-6.624982e-06
2.257639	-1.017931e-06	-2.032623e-05	-4.547220e-05	-3.073128e-08
2.258640	5.347239e-06	-2.680043e-05	-5.407981e-05	1.665622e-06
2.259640	3.639496e-06	-4.946452e-05	-4.639715e-05	-1.015234e-06
2.260641	1.863327e-06	-8.578896e-05	-2.269812e-05	-3.639682e-06
2.261641	-2.754957e-07	-1.263977e-04	-1.350018e-05	-1.058316e-05
2.262642	-5.126784e-07	-1.405113e-04	-7.582684e-06	-1.486313e-05
2.263642	2.842928e-06	-8.771214e-05	1.928193e-05	-3.071135e-06
2.264643	5.803637e-06	-7.207258e-05	3.771628e-05	7.981791e-06
2.265643	1.023125e-05	-1.545235e-04	5.884548e-05	4.723376e-06
2.266644	1.669620e-05	-2.527650e-04	6.417002e-05	-3.818237e-08
2.267644	1.719468e-05	-1.850909e-04	1.248245e-05	-3.029349e-06
2.268645	8.159802e-06	6.204281e-05	-3.847243e-05	-2.630548e-06
2.269645	-1.036123e-06	1.810068e-04	-5.315308e-05	1.376061e-06
2.270646	-7.485705e-06	1.078188e-04	-4.795766e-05	-3.500858e-06
2.271647	-1.283015e-05	4.964291e-05	-6.569621e-05	-1.060787e-05
2.272647	-1.126247e-05	-7.851980e-05	-1.103470e-04	-5.443689e-06
2.273648	-6.724773e-06	-3.382075e-04	-9.767134e-05	1.428776e-06
2.274648	-4.084342e-06	-3.984490e-04	-4.989953e-05	2.357340e-06
2.275649	2.425925e-06	-1.238003e-04	-1.619008e-05	2.726050e-06
2.276649	6.789667e-06	1.533778e-04	4.717997e-05	2.256501e-06
2.277650	1.290626e-07	1.282003e-04	1.057816e-04	3.907477e-06
2.278650	-4.845420e-06	9.840969e-06	1.252130e-04	3.392862e-06
2.279651	2.677780e-06	1.033945e-04	1.340471e-04	-7.669922e-08
2.280651	9.378278e-06	1.196713e-04	1.026206e-04	1.205468e-05
2.281652	6.058793e-06	7.588019e-05	3.976775e-05	1.172721e-05
2.282652	3.824377e-06	2.643751e-04	1.058736e-05	-2.063830e-05
2.283653	5.503637e-06	2.097505e-04	4.839356e-06	-2.145551e-05
2.284653	-1.048003e-07	2.423031e-05	-9.376456e-06	7.328969e-06
2.285654	-9.014318e-06	1.789008e-04	-2.463598e-05	8.501946e-06
2.286654	-4.082371e-06	1.437212e-04	-3.418571e-05	-2.027810e-05
2.287655	6.110950e-06	-6.056743e-05	-4.018453e-05	-6.087440e-05
2.288655	-1.892466e-06	-1.555471e-05	-3.924774e-05	-5.200224e-05
2.289656	-1.593419e-05	5.085258e-05	-2.807785e-05	2.485187e-06
2.290657	-1.466953e-05	8.931539e-05	-1.987659e-05	1.873828e-05
2.291657	-8.172081e-06	7.778703e-05	-2.011513e-05	2.305796e-05
2.292658	-4.741853e-06	-1.689668e-05	-5.275430e-06	4.212772e-05
2.293658	7.898460e-07	-3.819726e-05	1.447580e-05	4.023399e-05
2.294659	5.093721e-06	-4.991113e-05	1.375941e-05	3.170474e-05
2.295659	5.707796e-06	-7.299508e-05	2.517967e-05	2.639138e-05
2.296660	4.749611e-06	-7.469481e-05	2.159654e-05	1.726957e-05
2.297660	2.562351e-06	-9.406112e-05	-4.785315e-05	1.255154e-05
2.298661	1.923295e-06	-5.249435e-05	-9.973111e-05	1.043483e-05
2.299661	9.053608e-07	-1.054646e-04	-7.299970e-05	4.924827e-06
2.300662	-1.224408e-06	-2.748873e-04	-8.543372e-06	-1.404963e-06
2.301662	-1.172908e-06	-3.955687e-04	4.578580e-05	-3.616192e-06
2.302663	1.299128e-06	-5.539073e-04	6.811444e-05	-3.294941e-06
2.303663	1.341968e-05	-1.839642e-04	6.016080e-05	-6.173173e-06
2.304664	2.827655e-05	5.890754e-04	9.882070e-06	-1.354877e-05
2.305664	1.987001e-05	5.362931e-04	-5.240488e-05	-1.543403e-05
2.306665	-8.614360e-06	7.445409e-05	-6.087181e-05	-9.861897e-06
2.307665	-2.473780e-05	2.736365e-06	-1.475379e-05	-9.837714e-06
2.308666	-1.767421e-05	4.579046e-05	4.557481e-05	-1.262562e-05
2.309666	-7.137674e-06	5.809798e-05	7.072487e-05	-1.136328e-05
2.310667	-4.382071e-06	1.087914e-05	3.977852e-05	-1.274206e-05
2.311668	-5.217231e-06	2.290334e-05	1.216654e-05	-1.628006e-05
2.312668	-5.766463e-06	-5.555551e-05	1.338290e-05	-1.729127e-05
2.313669	7.285722e-07	-2.939098e-04	4.327785e-06	-1.747546e-05
2.314669	1.494374e-05	1.468860e-05	7.320166e-06	-1.753889e-05
2.315670	2.257318e-05	4.457982e-04	7.096204e-06	-1.633270e-05
2.316670	1.041447e-05	1.322723e-04	-4.802814e-05	-7.982496e-06
2.317671	-1.295960e-05	-1.918149e-04	-9.499504e-05	5.856979e-06
2.318671	-2.481976e-05	-2.844619e-04	-9.745880e-05	1.254363e-05
2.319672	-1.307840e-05	-2.645457e-04	-9.652153e-05	1.798252e-05
2.320672	8.893062e-06	2.292990e-04	-7.455627e-05	2.520610e-05
2.321673	1.751698e-05	3.435692e-04	-1.063879e-06	2.221431e-05
2.322673	9.459059e-06	9.618999e-05	8.706058e-05	1.545140e-05
2.323674	-8.195709e-06	2.310964e-04	1.233416e-04	1.020544e-05
2.324674	-2.017125e-05	1.955697e-04	7.746651e-05	5.461274e-06
2.325675	-1.084129e-05	5.758116e-05	1.086695e-05	5.250915e-06
2.326675	5.078402e-06	-9.984976e-05	5.628683e-06	4.472526e-06
2.327676	8.373585e-06	-4.477468e-04	2.919423e-05	2.116558e-06
2.328676	-1.802501e-06	-8.172425e-04	3.112139e-05	-1.117106e-06
2.329677	-2.750479e-06	-8.844677e-04	3.979241e-05	-4.448718e-06
2.330678	2.623389e-05	2.018934e-04	5.718413e-05	3.941405e-07
2.331678	4.417801e-05	9.767112e-04	5.002161e-05	7.213960e-06
2.332679	1.361820e-05	1.997643e-04	2.091974e-05	9.536395e-06
2.333679	-2.256767e-05	6.706064e-05	-2.600000e-06	1.413875e-05
2.334680	-2.457690e-05	5.386140e-04	-1.243347e-05	1.840068e-05
2.335680	-1.267212e-05	1.389382e-04	-1.824213e-05	1.808665e-05
2.336681	-1.279134e-05	-8.915003e-05	-2.059407e-05	9.114337e-06
2.337681	-1.827972e-05	1.179089e-04	-3.151221e-05	-1.323784e-05
2.338682	-1.283224e-05	1.012483e-04	-6.512565e-05	-3.106587e-05
2.339682	-2.934235e-06	8.690789e-05	-8.114255e-05	-3.317849e-05
2.340683	-1.065589e-06	-6.291869e-05	-4.832616e-05	-3.023108e-05
2.341683	-2.971970e-06	-3.309842e-04	-2.103736e-05	-2.109578e-05
2.342684	2.601724e-06	-3.091417e-04	-6.083125e-06	-8.964068e-06
2.343684	1.629451e-05	-1.691094e-04	3.168144e-05	-1.291692e-06
2.344685	2.312692e-05	-1.454056e-04	3.315793e-05	2.787520e-06
2.345685	1.571486e-05	-1.591743e-04	-5.059326e-06	-9.645299e-07
2.346686	-2.892840e-07	-6.655251e-05	-1.309995e-05	-5.612188e-06
2.347686	-1.449464e-05	-5.859010e-05	-1.457011e-06	-4.821833e-06
2.348687	-1.356770e-05	-1.268128e-04	1.102229e-05	-3.788778e-06
2.349687	9.658107e-07	6.221704e-05	2.082650e-05	-2.706858e-06
2.350688	1.931611e-05	1.252439e-04	9.976466e-06	-6.119516e-06
2.351689	3.150683e-05	4.808742e-05	-8.908319e-06	-1.072483e-05
2.352689	2.012578e-05	2.303854e-04	-1.877519e-05	-6.655288e-06
2.353690	-8.979507e-06	2.232921e-04	-1.169669e-05	2.911173e-06
2.354690	-2.332379e-05	8.050251e-05	4.331876e-06	1.689284e-05
2.355691	-1.634548e-05	1.266301e-04	-1.034348e-06	2.806406e-05
2.356691	-7.236537e-06	-2.693291e-05	-1.264931e-05	3.214424e-05
2.357692	-4.250014e-06	-1.331931e-04	-8.648603e-06	4.174138e-05
2.358692	-6.907562e-06	5.353281e-05	-1.372008e-05	4.895875e-05
2.359693	-8.606922e-06	3.783690e-05	-2.059206e-05	4.279624e-05
2.360693	-5.794826e-06	-1.835796e-04	5.794968e-06	1.375855e-05
2.361694	-2.966583e-06	-3.994497e-04	4.555946e-05	-3.963145e-05
2.362694	6.965691e-06	-2.532788e-04	6.032974e-05	-5.936418e-05
2.363695	1.928183e-05	3.166892e-04	6.388323e-05	-3.096006e-05
2.364695	1.810120e-05	4.038268e-04	4.619333e-05	-1.572160e-05
2.365696	4.830062e-06	7.577984e-05	8.404031e-07	-1.848965e-05
2.366696	-1.195031e-05	1.014630e-05	-2.011628e-05	-1.348048e-05
2.367697	-1.405535e-05	6.907381e-05	-4.371205e-05	-4.236455e-06
2.368697	-5.052918e-06	1.657273e-04	-9.370277e-05	-2.507103e-06
2.369698	-4.091917e-06	7.497425e-05	-1.068541e-04	-8.334137e-06
2.370699	-3.535895e-06	-1.859815e-04	-7.391134e-05	-2.759566e-06
2.371699	-4.461874e-06	-3.162006e-04	-2.767163e-05	9.838667e-06
2.372700	-3.048398e-06	-3.256651e-04	2.108703e-05	1.311555e-05
2.373700	1.153677e-05	7.905300e-05	6.737321e-05	1.430138e-05
2.374701	2.290841e-05	3.489751e-04	7.611781e-05	1.498181e-05
2.375701	1.757393e-05	-5.625627e-05	3.476035e-05	1.209975e-05
2.376702	-3.606975e-06	-6.277686e-05	1.027936e-05	7.547724e-06
2.377702	-1.880207e-05	2.787769e-04	2.381165e-05	4.600843e-06
2.378703	-1.211841e-05	1.013906e-04	4.319133e-05	4.679886e-06
2.379703	-2.446184e-06	-2.015304e-05	6.152103e-05	6.771113e-07
2.380704	1.051074e-06	9.264179e-05	5.286206e-05	-2.947844e-06
2.381704	-4.913895e-07	-6.404199e-05	3.178702e-05	-4.152039e-06
2.382705	-6.022298e-06	-3.457665e-04	2.259945e-05	-8.920101e-06
2.383705	-4.486698e-06	-5.239334e-04	-1.967363e-05	-8.686467e-06
2.384706	4.432272e-06	-2.648055e-04	-6.255631e-05	-5.475817e-06
2.385706	1.388534e-05	2.652662e-04	-4.585557e-05	-4.357109e-06
2.386707	9.865124e-06	3.206806e-04	-1.741287e-05	-3.143057e-06
2.387707	-1.079696e-05	1.598006e-04	-9.004017e-06	-5.049895e-06
2.388708	-1.478854e-05	5.801654e-05	-6.188872e-06	-4.750913e-06
2.389709	3.494547e-07	7.578367e-05	-1.622771e-05	-3.214850e-06
2.390709	6.879562e-06	2.933785e-04	-4.381168e-05	-4.959218e-06
2.391710	8.970521e-06	9.472749e-05	-6.058013e-05	-3.871347e-06
2.392710	8.079296e-07	-1.949681e-04	-3.291407e-05	-9.355066e-07
2.393711	-1.842999e-05	-4.070835e-04	-1.069752e-05	-1.028544e-06
2.394711	-1.076140e-05	-6.247643e-04	-1.649218e-05	-8.434709e-07
2.395712	1.764834e-05	-7.474569e-05	1.304580e-05	4.013514e-06
2.396712	2.325212e-05	1.320872e-04	2.677955e-05	8.155639e-06
2.397713	6.716572e-06	-1.406654e-04	7.023290e-06	6.016215e-06
2.398713	3.781720e-07	3.888302e-04	4.046707e-05	3.048777e-06
2.399714	1.069675e-05	5.242604e-04	6.577001e-05	3.676268e-06
2.400714	1.823758e-06	1.506989e-04	3.139593e-05	1.998023e-06
2.401715	-2.507599e-05	-3.904362e-05	1.086447e-05	-2.718356e-06
2.402715	-2.253499e-05	-1.848239e-04	1.291993e-05	-3.842629e-06
2.403716	4.295848e-06	3.476822e-04	5.718749e-06	-2.074223e-06
2.404716	1.377900e-05	5.711381e-04	-6.567101e-06	7.961022e-07
2.405717	-2.556291e-06	-6.871398e-05	-1.431501e-05	3.972967e-06
2.406717	-1.569666e-05	-2.171997e-04	-1.390543e-05	5.359365e-06
2.407718	-1.132103e-05	-1.878350e-04	-8.505569e-06	7.660800e-06
2.408718	-7.985802e-06	-5.399334e-04	-6.853123e-06	1.175384e-05
2.409719	-3.639366e-06	-5.007456e-04	-1.263030e-05	1.309559e-05
2.410720	1.478408e-05	-3.122810e-05	-1.912698e-05	1.767209e-05
2.411720	3.403115e-05	2.248358e-05	-1.567551e-05	1.917070e-05
2.412721	3.118238e-05	-1.202980e-04	-4.178646e-06	9.065728e-07
2.413721	6.138980e-06	1.797239e-04	-5.368436e-06	-6.677440e-06
2.414722	-1.620177e-05	5.122657e-04	-1.969937e-05	7.573771e-06
2.415722	-1.983939e-05	4.969590e-04	-1.820680e-05	5.048316e-06
2.416723	-1.023355e-05	2.078065e-04	-1.239849e-05	-1.250284e-05
2.417723	-6.219502e-06	-1.712209e-05	-1.689552e-05	-2.505418e-05
2.418724	-1.139902e-05	1.242950e-05	1.098519e-05	-2.873733e-05
2.419724	-9.208223e-06	-1.043538e-05	4.946563e-05	-2.422432e-05
2.420725	-3.669163e-06	-1.235032e-04	2.705559e-05	-1.936257e-05
2.421725	-1.441070e-06	-1.051110e-04	-1.996062e-05	-1.542739e-05
2.422726	1.254760e-06	-1.550159e-04	-2.235934e-05	-1.084112e-05
2.423726	4.888957e-07	-3.780086e-04	-5.430831e-06	-6.388079e-06
2.424727	2.168050e-07	-2.986367e-04	-6.187687e-07	-2.591273e-06
2.425727	3.529420e-06	-2.331771e-04	2.462245e-05	6.531270e-07
2.426728	7.616303e-06	-1.871325e-04	5.108924e-05	4.622309e-06
2.427728	8.945648e-06	3.297545e-04	3.618119e-05	9.953712e-06
2.428729	1.058323e-05	2.650083e-04	1.791149e-05	1.483529e-05
2.429730	1.911274e-05	-3.140561e-05	1.539225e-05	1.530193e-05
2.430730	1.621388e-05	1.383126e-04	8.217148e-06	1.137752e-05
2.431731	-1.254745e-06	-1.124329e-04	-1.941060e-07	5.503271e-06
2.432731	-1.223465e-05	-1.602348e-04	-9.387947e-08	2.676910e-06
2.433732	-1.673116e-05	-4.005747e-05	-1.638227e-06	2.310617e-06
2.434732	-1.285681e-05	-1.431708e-04	-2.532348e-05	-6.396939e-07
2.435733	-9.573631e-08	2.787068e-04	-5.523845e-05	-1.139376e-06
2.436733	4.410027e-06	4.323902e-04	-6.855882e-05	1.561065e-06
2.437734	1.684330e-06	1.612951e-05	-6.664386e-05	4.311643e-06
2.438734	1.526419e-06	-1.663416e-04	-2.610729e-05	6.779299e-06
2.439735	-2.576743e-06	-3.460648e-05	5.152716e-05	3.753472e-06
2.440735	-7.483620e-06	1.934279e-04	6.778119e-05	-3.278878e-06
2.441736	-5.567397e-06	1.846011e-04	-1.825882e-05	-5.990051e-06
2.442736	-2.582222e-06	9.393315e-05	-9.410540e-05	-1.989620e-06
2.443737	1.449205e-07	7.027912e-05	-8.290525e-05	1.975979e-06
2.444737	2.663177e-06	-3.642984e-05	-1.206421e-05	3.713880e-06
2.445738	3.611703e-06	-7.654723e-05	7.765593e-05	9.656874e-06
2.446738	2.731898e-06	-5.946060e-05	1.367026e-04	1.178766e-05
2.447739	-8.158815e-08	-5.188992e-05	1.087581e-04	2.530233e-06
2.448739	3.753818e-07	-6.486058e-05	2.460060e-05	-6.179175e-06
2.449740	2.693384e-06	-8.195318e-05	-1.024517e-05	-6.151237e-06
2.450741	5.501563e-07	-7.388451e-05	7.379273e-06	-1.607202e-07
2.451741	-3.319177e-06	-1.214415e-04	1.951858e-05	5.295764e-06
2.452742	-2.198332e-06	-1.087784e-04	2.394434e-05	5.751714e-06
2.453742	1.735276e-06	-6.361491e-05	1.068600e-05	7.661980e-07
2.454743	2.788071e-06	-3.978545e-05	-1.662292e-05	-6.645922e-06
2.455743	1.899511e-06	5.855555e-05	-2.543178e-05	-6.692773e-06
2.456744	3.836208e-07	9.125392e-05	-2.126920e-05	6.475953e-06
2.457744	-1.663678e-06	7.165163e-05	-2.168807e-05	9.949845e-06
2.458745	-3.683665e-06	-9.220717e-06	-3.143462e-05	-2.389756e-05
2.459745	-4.178524e-06	-8.588419e-05	-6.152204e-05	-4.794119e-05
2.460746	-4.194243e-06	-1.485745e-04	-8.697244e-05	-3.012090e-05
2.461746	-8.867011e-07	-1.820402e-04	-6.410604e-05	-2.873675e-05
2.462747	1.024790e-05	2.152022e-04	-1.939614e-05	-5.588901e-06
2.463747	1.513309e-05	2.030693e-04	1.604116e-05	8.423902e-05
2.464748	7.162442e-06	-2.289489e-04	4.365592e-05	1.175547e-04
2.465748	1.460289e-06	9.464662e-05	4.156711e-05	6.744617e-05
2.466749	8.109052e-07	1.695950e-04	2.854051e-05	3.194317e-05
2.467749	-3.516976e-06	-8.172585e-05	3.613362e-05	-2.569495e-05
2.468750	-1.003883e-05	1.363922e-04	3.429120e-05	-1.154059e-04
2.469751	-9.241475e-06	1.346588e-04	1.498741e-05	-1.067046e-04
2.470751	8.278966e-07	6.442680e-05	1.534047e-06	-3.411663e-05
2.471752	6.347312e-06	1.840118e-05	-6.395375e-06	-1.452834e-05
2.472752	-2.814479e-07	-2.298292e-04	-1.217487e-05	1.308591e-06
2.473753	-7.673533e-06	-2.556708e-04	-1.602572e-05	1.978490e-05
2.474753	-8.038053e-06	9.371318e-06	-1.746095e-05	3.766140e-06
2.475754	5.226345e-07	2.755145e-04	-2.051568e-05	9.226483e-07
2.476754	6.677553e-06	2.057268e-04	-2.535090e-05	1.317690e-05
2.477755	-3.452599e-06	9.132771e-06	-1.152332e-05	2.941803e-05
2.478755	-1.114565e-05	1.701495e-05	2.144184e-05	4.368111e-05
2.479756	-7.287305e-06	3.852034e-05	5.116132e-05	2.334943e-05
2.480756	-2.633768e-06	-4.263225e-06	5.729147e-05	-1.132478e-05
2.481757	3.291083e-06	-5.020867e-05	2.944940e-05	-4.341804e-05
2.482757	3.081310e-06	-1.480114e-04	-3.971644e-06	-4.796120e-05
2.483758	-1.448876e-07	-2.490261e-04	-6.309662e-06	-1.240882e-06
2.484758	4.106922e-06	-1.740410e-04	5.720319e-06	2.243253e-05
2.485759	7.313366e-06	-3.623007e-05	2.764389e-06	2.009806e-05
2.486759	8.594269e-06	7.826912e-05	-5.664022e-07	4.147010e-05
2.487760	1.231723e-05	1.694093e-04	-1.827425e-06	2.972621e-05
2.488761	1.077319e-05	7.397959e-05	-1.497281e-05	-1.196082e-05
2.489761	1.402499e-06	3.792771e-05	-1.691674e-05	-2.494051e-05
2.490762	-4.736494e-06	1.117685e-04	-7.237586e-06	-2.429824e-05
2.491762	-3.338930e-06	5.438927e-05	-2.183648e-05	-2.158395e-05
2.492763	4.578371e-07	-4.449079e-07	-5.508984e-05	-1.346594e-05
2.493763	7.749092e-07	-2.820412e-05	-6.676640e-05	-3.320287e-06
2.494764	-3.598242e-06	-6.068005e-05	-4.230862e-05	1.268895e-05
2.495764	-2.326815e-06	-4.082532e-05	-2.715877e-06	1.928908e-05
2.496765	-8.100071e-07	-2.047870e-05	3.126759e-05	1.656980e-05
2.497765	-7.546698e-06	-1.326558e-05	4.899340e-05	2.801972e-05
2.498766	-1.217840e-05	-1.170382e-05	3.815462e-05	3.858168e-05
2.499766	-1.497586e-05	-1.985948e-05	1.809150e-05	3.156657e-05
2.500767	-1.462907e-05	-1.431589e-05	2.166352e-05	1.165893e-05
2.501767	-9.279454e-06	-6.289013e-06	2.675453e-05	-2.319516e-05
2.502768	-8.318450e-06	-1.541637e-05	1.346908e-05	-3.563974e-05
2.503768	-6.624903e-06	-3.044846e-05	2.512272e-06	-6.622037e-06
2.504769	-4.858758e-07	-5.008592e-05	-1.252772e-05	1.286421e-05
2.505769	7.021221e-06	-3.564166e-05	-3.820802e-05	1.945831e-05
2.506770	1.468987e-05	3.693578e-05	-3.080964e-05	2.126222e-05
2.507770	1.328771e-05	6.260135e-05	1.903498e-05	-2.956219e-06
2.508771	1.266446e-05	-1.595711e-05	4.150245e-05	-1.418720e-05
2.509772	2.103527e-05	-2.776862e-05	1.885403e-05	-1.169747e-05
2.510772	1.850026e-05	5.694257e-05	2.797858e-06	-3.163506e-05
2.511773	1.362493e-05	3.863057e-05	-1.242119e-06	-3.837305e-05
2.512773	2.269206e-05	2.926481e-05	-6.039188e-06	-2.459786e-05
2.513774	2.782789e-05	9.372732e-05	-6.587281e-06	-1.276194e-05
2.514774	2.389259e-05	4.521531e-05	-1.117135e-05	-5.910305e-07
2.515775	1.023334e-05	-1.799680e-05	-2.565528e-05	-3.949878e-06
2.516775	-1.303373e-05	-5.412299e-05	-2.736898e-05	-2.442966e-05
2.517776	-2.757769e-05	-1.095318e-04	-7.515253e-06	-3.536066e-05
2.518776	-3.922617e-05	-1.425221e-04	3.238223e-06	-2.330841e-05
2.519777	-4.168871e-05	-1.323502e-04	4.665991e-06	-3.821431e-06
2.520777	-1.821543e-05	-2.881954e-05	-1.121151e-05	4.677065e-06
2.521778	1.002187e-06	-4.181440e-05	-6.858103e-05	1.258064e-05
2.522778	6.145474e-06	1.921966e-05	-9.661914e-05	2.079088e-05
2.523779	1.010737e-05	3.266631e-04	-7.260415e-05	2.724296e-05
2.524779	1.131021e-05	2.276045e-04	-6.465331e-05	4.567241e-05
2.525780	8.059190e-06	-5.030106e-05	-1.509055e-05	4.804999e-05
2.526780	-5.960444e-06	6.304074e-06	9.435044e-05	2.533312e-05
2.527781	-2.400408e-05	-1.282643e-05	1.271084e-04	1.129204e-05
2.528782	-5.448863e-05	-6.779952e-05	9.146758e-05	-1.632903e-06
2.529782	-6.468395e-05	2.299707e-05	7.078594e-05	-1.057074e-05
2.530783	-2.715043e-05	6.283399e-05	4.574405e-05	-4.299563e-06
2.531783	-2.839329e-05	4.430439e-05	5.471359e-05	-6.840835e-06
2.532784	-1.818160e-05	-2.620228e-05	9.395585e-05	-6.799009e-06
2.533784	5.812863e-05	-1.025297e-04	6.336074e-05	4.372335e-06
2.534785	6.556880e-05	-9.231491e-05	-1.011167e-07	2.722690e-06
2.535785	4.929782e-05	-6.530999e-06	-2.502751e-05	7.171500e-06
2.536786	8.405082e-05	6.177562e-05	-2.994777e-05	7.612254e-06
2.537786	8.122574e-05	1.541894e-05	-2.920803e-05	-9.784730e-06
2.538787	5.450264e-05	-2.956559e-05	-3.205928e-05	9.671944e-06
2.539787	3.994809e-05	-6.408641e-06	-4.290287e-05	2.271815e-05
2.540788	2.107377e-05	-5.357891e-07	-5.481127e-05	-1.981175e-05
2.541788	-9.691425e-06	-5.140651e-06	-5.577505e-05	-4.863366e-05
2.542789	-6.666166e-05	-1.234061e-05	-3.651066e-05	-4.136810e-05
2.543789	-1.059664e-04	-1.346294e-05	-7.109340e-06	-1.247506e-05
2.544790	-8.738389e-05	-8.571734e-06	1.380006e-05	1.594743e-05
2.545790	-7.102111e-05	-2.201669e-06	-1.214317e-05	2.021493e-05
2.546791	-8.562714e-05	1.315294e-05	-6.418988e-05	1.354691e-05
2.547791	-6.879766e-05	1.039651e-05	-4.307066e-05	-3.439528e-06
2.548792	-2.249656e-05	2.749127e-05	7.909778e-06	-1.503609e-05
2.549793	1.770657e-05	3.460831e-05	5.535007e-06	-1.027027e-05
2.550793	7.207983e-05	-2.698673e-05	3.294620e-05	-8.597568e-06
2.551794	9.230802e-05	-7.613364e-05	6.340918e-05	-3.943656e-06
2.552794	5.621676e-05	-4.880100e-05	3.332390e-05	6.538186e-06
2.553795	4.532103e-05	2.830793e-05	4.313064e-05	9.702445e-06
2.554795	4.218930e-05	4.832852e-05	6.304962e-05	7.453985e-06
2.555796	6.622411e-06	-3.195354e-05	2.764283e-05	4.343696e-06
2.556796	-5.809538e-05	-1.137495e-04	-1.861005e-06	5.946349e-07
2.557797	-1.156849e-04	-5.936905e-05	-2.161126e-05	-2.519720e-06
2.558797	-5.307732e-05	7.763866e-05	-3.508733e-05	-3.858714e-06
2.559798	5.904693e-05	8.156911e-05	-2.571586e-05	1.943919e-08
2.560798	8.668202e-05	1.292335e-05	-1.352783e-05	2.950303e-06
2.561799	7.564249e-05	-6.406514e-06	1.211399e-06	3.809593e-06
2.562799	4.234198e-05	5.004814e-06	4.242844e-06	1.156648e-05
2.563800	1.175059e-05	4.776467e-05	-5.303523e-05	7.433892e-06
2.564800	2.577609e-05	5.323079e-05	-1.283827e-04	-6.001359e-06
2.565801	3.032357e-05	9.538743e-06	-1.411851e-04	-1.099054e-06
2.566801	7.337724e-06	-3.173984e-05	-1.262049e-04	5.416805e-06
2.567802	-5.187942e-06	-3.507960e-05	-6.478334e-05	1.681087e-06
2.568803	1.300617e-06	-9.983693e-06	7.165086e-05	-2.280126e-06
2.569803	4.974559e-06	-1.158868e-05	1.210213e-04	-5.244932e-06
2.570804	-1.210992e-05	-1.958547e-06	4.938024e-05	-1.726716e-06
2.571804	-3.412657e-05	1.850974e-05	7.073878e-06	5.993310e-06
2.572805	-3.583633e-05	1.425020e-05	4.114034e-06	1.405693e-05
2.573805	-3.822121e-05	1.449726e-05	-2.491473e-06	2.073808e-05
2.574806	-5.029781e-05	3.013091e-06	6.226407e-05	1.911959e-05
2.575806	-6.300487e-05	-7.479083e-06	1.744420e-04	3.251401e-06
2.576807	-7.524767e-05	1.643878e-05	1.308162e-04	-3.026012e-05
2.577807	-2.482201e-05	1.434445e-05	1.550710e-05	-4.990560e-05
2.578808	3.029618e-05	-2.460102e-05	5.562263e-05	-2.782445e-05
2.579808	-7.793022e-06	-2.324654e-05	9.086989e-05	-2.839354e-06
2.580809	-2.390832e-05	2.513308e-06	1.775039e-05	6.678489e-06
2.581809	4.026002e-06	8.457390e-06	-2.370781e-05	1.655033e-05
2.582810	1.430899e-06	1.782999e-05	-3.260830e-05	8.226149e-06
2.583810	3.573170e-06	2.136218e-05	-4.067834e-05	-8.416626e-08
2.584811	-1.190059e-05	9.025789e-06	-3.867909e-05	1.576086e-05
2.585811	-2.018798e-05	-1.562555e-05	-4.678162e-05	3.395042e-05
2.586812	5.086573e-05	-3.093901e-05	-5.173846e-05	3.995391e-05
2.587813	8.316950e-05	-5.155452e-06	-4.404075e-05	6.118611e-06
2.588813	2.877303e-05	-1.487079e-06	-5.657056e-05	-2.519219e-05
2.589814	4.811345e-06	-1.149952e-05	-5.750842e-05	-4.280012e-06
2.590814	3.568697e-06	1.150319e-05	-1.045858e-05	-3.068433e-06
2.591815	-7.249374e-06	2.888393e-06	2.425584e-06	-3.590309e-05
2.592815	2.214266e-06	7.370823e-06	-1.375037e-05	-4.701403e-05
2.593816	1.937371e-05	3.692299e-05	5.545040e-06	-2.446699e-05
2.594816	3.712613e-05	1.468377e-06	1.288256e-05	-4.369420e-06
2.595817	4.823732e-05	-2.512365e-05	2.025736e-05	-1.131966e-05
2.596817	4.484048e-05	3.817961e-06	3.488994e-05	-2.966817e-06
2.597818	4.334321e-05	5.055219e-06	-1.942976e-05	8.011519e-06
2.598818	4.304787e-05	-2.471550e-05	-7.719739e-05	-2.915092e-06
2.599819	4.312088e-05	-3.298945e-05	-4.307869e-05	4.011442e-06
2.600819	4.196005e-05	-4.013658e-05	7.916461e-06	1.830664e-05
2.601820	1.592666e-05	-6.907408e-05	4.432211e-05	2.692330e-05
2.602820	-3.600519e-05	-7.086200e-05	1.053286e-04	3.304735e-05
2.603821	-7.374878e-05	-3.328523e-05	1.066748e-04	3.095120e-05
2.604821	-8.922796e-05	3.012762e-06	2.749862e-05	3.859143e-05
2.605822	-1.283648e-04	2.390144e-05	-2.293289e-05	3.721794e-05
2.606822	-1.702755e-04	4.707263e-05	-3.196266e-05	3.813045e-06
2.607823	-1.419680e-04	7.112291e-05	-3.312329e-05	-2.420576e-05
2.608824	-6.663323e-05	7.392652e-05	-2.496710e-05	-2.366291e-06
2.609824	-1.559171e-05	6.335988e-05	-4.043782e-05	2.841898e-05
2.610825	2.412307e-05	5.733696e-05	-9.943300e-05	-9.114241e-06
2.611825	7.460599e-05	6.330909e-05	-1.310651e-04	-7.323868e-05
2.612826	6.087750e-05	5.199168e-05	-8.595930e-05	-8.454132e-05
2.613826	-1.621800e-05	-1.974123e-06	-2.131771e-05	-5.146303e-05
2.614827	-1.039349e-04	-4.705290e-05	5.160715e-05	-1.342603e-05
2.615827	-1.623823e-04	-4.628013e-05	1.305251e-04	8.205148e-06
2.616828	-1.505634e-05	-2.107394e-05	1.204503e-04	9.460227e-06
2.617828	2.296122e-04	-2.898803e-06	2.341968e-05	3.018990e-06
2.618829	2.554597e-04	-9.131252e-06	-5.342045e-05	9.595983e-06
2.619829	1.784457e-04	-2.057785e-05	-4.695305e-05	2.215210e-05
2.620830	1.600925e-04	-2.055841e-05	2.247034e-05	2.411633e-05
2.621830	1.361990e-04	-2.416839e-05	8.775653e-05	2.163045e-05
2.622831	1.115678e-04	-2.987950e-05	1.218933e-04	1.588423e-05
2.623831	1.078532e-04	-2.408624e-05	8.913318e-05	7.746995e-06
2.624832	1.021902e-04	-2.597260e-05	-5.817471e-06	3.741782e-06
2.625832	6.360767e-05	-4.304133e-05	-5.731377e-05	-1.786768e-06
2.626833	-4.980851e-06	-4.586793e-05	-4.267239e-05	-1.604866e-05
2.627834	-5.269090e-05	-3.265031e-05	-1.073119e-06	-2.403058e-05
2.628834	-1.140051e-04	-3.246389e-05	4.668383e-05	-1.567351e-05
2.629835	-2.100577e-04	-3.791877e-05	3.827151e-05	-1.557054e-05
2.630835	-2.451424e-04	-2.564123e-05	-1.823983e-06	-1.579318e-05
2.631836	-2.228078e-04	-4.785536e-06	1.006591e-05	1.393272e-05
2.632836	-2.066938e-04	1.510857e-05	2.175090e-05	4.035506e-05
2.633837	-2.700692e-04	3.709759e-05	-1.043165e-05	4.891866e-05
2.634837	-3.715288e-04	6.841952e-05	-2.629699e-05	7.441554e-05
2.635838	-2.940479e-04	9.462733e-05	-1.828033e-05	6.680029e-05
2.636838	-8.969210e-05	9.452537e-05	-1.253829e-05	-7.771559e-06
2.637839	1.482637e-04	8.913147e-05	-7.442515e-06	-4.091659e-05
2.638839	3.701933e-04	8.164450e-05	-8.097965e-06	1.543439e-06
2.639840	3.516009e-04	5.877415e-05	-2.415850e-05	2.548893e-05
2.640840	2.235195e-04	2.943547e-05	-7.784529e-05	-2.862694e-06
2.641841	1.886426e-04	-1.752912e-07	-1.368943e-04	-4.224066e-05
2.642841	1.609288e-04	-1.237602e-05	-1.650601e-04	-4.039829e-05
2.643842	1.339738e-04	-1.454797e-05	-1.780832e-04	-1.361408e-05
2.644842	8.582720e-05	-3.102477e-05	-1.224867e-04	-1.813601e-05
2.645843	-1.220778e-05	-5.429438e-05	-2.828692e-05	-2.763146e-05
2.646843	-6.862297e-05	-7.769008e-05	4.525086e-05	-3.741319e-05
2.647844	-6.911530e-05	-8.355469e-05	1.136511e-04	-6.636443e-05
2.648845	-7.530931e-05	-5.947701e-05	1.257024e-04	-5.742808e-05
2.649845	-4.388310e-05	-3.717313e-05	1.340857e-04	-1.499889e-05
2.650846	5.899906e-05	-3.619026e-05	1.450249e-04	7.571043e-06
2.651846	1.374375e-04	-2.841856e-05	8.328874e-05	1.362738e-05
2.652847	8.722577e-05	-9.362188e-07	3.810964e-05	2.399294e-05
2.653847	-4.207738e-05	1.299965e-05	3.416550e-05	2.543803e-05
2.654848	-7.047777e-05	1.573251e-05	3.901584e-05	7.983434e-06
2.655848	-5.754359e-05	2.681967e-05	4.856509e-05	1.797639e-05
2.656849	-1.134084e-04	1.971607e-05	2.800681e-05	1.937211e-05
2.657849	-1.341298e-04	5.071765e-07	-1.112266e-06	-6.440122e-06
2.658850	-1.436730e-04	-4.483948e-06	-9.360424e-06	2.845545e-05
2.659850	-1.191695e-04	-1.498178e-05	-2.735499e-06	4.691389e-05
2.660851	-2.869601e-05	-2.560964e-05	2.481222e-06	1.053025e-05
2.661851	-1.115848e-05	-9.467059e-06	1.671728e-07	3.353850e-05
2.662852	1.312111e-05	1.105706e-05	-3.553293e-06	6.261976e-05
2.663852	9.490556e-05	2.978755e-05	-9.314024e-06	4.513019e-05
2.664853	5.069305e-05	2.470035e-05	-1.703347e-05	2.667889e-05
2.665853	-3.744098e-05	-1.043457e-05	-3.275317e-05	-1.706900e-05
2.666854	5.797810e-05	6.659119e-05	-4.482809e-05	-6.399094e-05
2.667855	1.652571e-04	1.638629e-04	-4.131012e-05	-5.926075e-05
2.668855	8.169140e-05	3.922733e-05	-3.664076e-05	-3.519611e-05
2.669856	1.713578e-07	-7.994298e-05	-3.919232e-05	-2.077803e-05
2.670856	2.306210e-05	-1.874761e-05	-4.489513e-05	-4.226844e-06
2.671857	4.099891e-05	-1.317183e-05	-4.073820e-05	-1.913088e-06
2.672857	1.843633e-05	-6.178704e-05	-1.839976e-05	-2.803033e-05
2.673858	-3.061384e-05	-3.236910e-05	-3.533000e-06	-4.518901e-05
2.674858	-5.488770e-05	-6.998067e-06	-3.478242e-05	-2.881692e-05
2.675859	-4.355038e-05	-6.866089e-06	-6.446965e-05	5.288315e-06
2.676859	-5.109372e-05	8.366834e-06	-5.633442e-05	3.172584e-05
2.677860	-7.368736e-05	7.574136e-06	-5.018995e-05	2.988887e-05
2.678860	-6.501139e-05	-6.240824e-06	2.230590e-05	1.096531e-05
2.679861	1.722398e-05	-6.669003e-06	1.191564e-04	3.687921e-06
2.680861	9.702400e-05	-6.926865e-07	9.187743e-05	8.374712e-06
2.681862	2.569462e-06	1.995007e-06	4.627044e-05	3.947315e-06
2.682862	-1.015114e-04	-9.517926e-07	4.926795e-05	1.234082e-06
2.683863	2.642126e-05	-2.027464e-05	4.232165e-05	2.211907e-06
2.684863	1.177268e-04	-3.266341e-05	5.379373e-05	-3.964771e-06
2.685864	7.840936e-06	-1.325440e-05	5.032361e-05	2.611493e-05
2.686864	-3.534524e-05	4.250915e-06	7.957513e-06	7.599299e-05
2.687865	-1.685038e-05	1.114317e-05	-2.347665e-05	7.879015e-05
2.688866	-9.862409e-05	1.475790e-05	-3.186626e-05	3.859798e-05
2.689866	-5.968670e-05	9.128452e-06	-1.980921e-05	-2.332871e-05
2.690867	8.883801e-05	1.228820e-05	-2.467482e-05	-8.092906e-05
2.691867	3.198114e-05	2.450111e-05	-5.430690e-05	-8.995154e-05
2.692868	-3.222082e-05	2.463042e-05	-4.190180e-05	-3.781337e-05
2.693868	-3.178303e-05	7.287375e-06	-2.935209e-05	9.922482e-06
2.694869	-1.309066e-04	-5.169321e-06	-8.781784e-05	6.534410e-06
2.695869	-1.476318e-05	-2.708885e-06	-1.096176e-04	-4.251724e-06
2.696870	2.395211e-04	-4.511503e-06	-6.113831e-05	-1.086814e-05
2.697870	2.286892e-04	-7.525210e-06	-2.876965e-05	-7.842762e-06
2.698871	8.477654e-05	-8.178009e-06	6.763198e-05	1.331716e-05
2.699871	-2.293171e-07	-1.234551e-05	2.019065e-04	7.849288e-06
2.700872	9.277916e-06	1.429714e-06	1.838698e-04	-1.029202e-05
2.701872	4.014080e-05	2.825762e-05	6.838431e-05	8.097841e-06
2.702873	-2.071506e-05	2.068077e-05	-8.063139e-07	3.129070e-05
2.703873	-1.394715e-04	-8.554859e-06	-1.294411e-05	-7.497824e-06
2.704874	-1.782525e-04	-9.737306e-06	-1.366046e-05	-7.814014e-05
2.705874	-8.954252e-05	-7.148253e-06	-3.839300e-05	-9.568766e-05
2.706875	-1.566876e-04	-1.231889e-05	-4.982902e-05	-4.037404e-05
2.707876	-2.162259e-04	6.446353e-06	-2.489942e-05	5.129529e-05
2.708876	7.576134e-05	1.893883e-05	5.428988e-06	9.786560e-05
2.709877	2.703634e-04	9.119447e-06	2.305881e-05	8.865095e-05
2.710877	1.895486e-04	3.118028e-06	1.734559e-05	7.776051e-05
2.711878	2.591000e-05	1.111127e-05	3.566991e-06	6.350872e-05
2.712878	-1.187968e-04	1.883004e-05	4.161559e-06	4.096693e-05
2.713879	-4.365113e-05	-1.308800e-05	4.010167e-06	-1.034413e-06
2.714879	-8.364584e-05	-5.298492e-05	-6.896987e-07	-5.905462e-05
2.715880	-2.645705e-04	-5.284083e-05	3.095786e-06	-8.150720e-05
2.716880	3.515975e-05	-2.365285e-05	2.534195e-06	-3.273837e-05
2.717881	3.392277e-04	1.144964e-05	-1.070433e-05	5.943072e-07
2.718881	8.327556e-05	9.149557e-06	-2.332725e-05	-4.041777e-05
2.719882	-1.158192e-04	-1.369623e-05	-2.193616e-05	-3.233669e-05
2.720882	-4.213397e-05	-1.838182e-05	-1.227356e-05	-1.171119e-05
2.721883	3.019809e-05	-4.250095e-06	-1.785050e-05	-4.636144e-05
2.722883	6.524958e-05	2.280300e-05	-2.899047e-05	-4.531374e-06
2.723884	1.005522e-04	1.069269e-05	-2.441898e-05	6.358764e-05
2.724884	1.603773e-04	-2.423726e-05	-1.797973e-05	2.438808e-05
2.725885	8.102880e-05	-1.014831e-05	-1.600829e-05	-4.611751e-05
2.726886	-5.764307e-05	3.860249e-05	-1.986036e-05	-4.108504e-05
2.727886	-9.293347e-05	6.585516e-05	-3.164189e-05	-9.137096e-06
2.728887	-1.200760e-04	4.374362e-05	-3.929556e-05	8.952795e-06
2.729887	-9.405244e-05	1.708832e-05	-3.063645e-05	5.335746e-05
2.730888	8.270235e-06	1.113694e-05	-1.655022e-05	5.760390e-05
2.731888	1.335081e-04	-3.249705e-06	-2.592005e-05	1.087614e-05
2.732889	1.657679e-04	-1.007293e-05	-1.294271e-05	3.021881e-06
2.733889	6.722032e-05	-4.823274e-06	3.516155e-05	-1.863903e-05
2.734890	2.864248e-05	-9.594571e-06	4.689261e-05	-8.712601e-05
2.735890	1.431700e-05	-2.335773e-05	5.760088e-05	-7.067647e-05
2.736891	-9.661789e-05	-4.094736e-05	8.605470e-05	5.167276e-05
2.737891	-2.144704e-04	-4.088792e-05	8.368366e-05	1.208256e-04
2.738892	-2.944458e-04	-1.589720e-05	7.055383e-05	9.883782e-05
2.739892	-2.919098e-04	1.333372e-07	4.739960e-05	4.644950e-05
2.740893	-1.709536e-04	-7.892583e-08	1.208380e-05	-2.428283e-05
2.741893	-8.235093e-05	1.125008e-07	-4.060416e-07	-6.331329e-05
2.742894	2.951005e-05	3.836239e-06	-2.212214e-06	-5.935207e-05
2.743894	2.638971e-04	1.962845e-05	-1.685651e-05	-3.195919e-05
2.744895	3.303801e-04	3.432195e-05	-2.775969e-05	1.745612e-05
2.745895	2.146364e-04	2.331154e-05	-2.071328e-05	4.877607e-05
2.746896	1.364480e-04	4.036058e-06	-8.848041e-06	7.885193e-05
2.747897	5.894762e-05	-2.453941e-06	-2.854800e-06	7.895789e-05
2.748897	8.918891e-06	-8.165383e-06	-2.093306e-07	1.077441e-05
2.749898	4.017252e-06	-1.276414e-05	-7.526473e-06	-2.635157e-05
2.750898	-2.696746e-05	-6.002668e-06	-1.779530e-05	-7.227076e-05
2.751899	-9.704099e-05	-2.082697e-06	-2.482791e-05	-1.838680e-04
2.752899	-1.705508e-04	1.037001e-06	-2.506857e-05	-1.702097e-04
2.753900	-1.159924e-04	8.853340e-06	3.529622e-06	8.715537e-06
2.754900	-1.298089e-06	9.883680e-06	1.352503e-05	1.061016e-04
2.755901	-1.029448e-05	9.678625e-06	-1.690895e-05	3.742593e-05
2.756901	-2.013990e-05	1.503186e-05	-4.442863e-05	-2.203831e-05
2.757902	1.443228e-05	1.715205e-05	-1.198522e-04	2.064540e-06
2.758902	-1.228912e-05	1.973083e-06	-2.124518e-04	2.601583e-05
2.759903	-2.431514e-05	-1.920345e-05	-1.677141e-04	2.577371e-05
2.760903	4.081267e-05	-1.800139e-05	-3.716000e-05	2.931167e-05
2.761904	1.607336e-04	1.797567e-05	5.093844e-05	2.442402e-05
2.762904	2.037964e-04	3.799194e-05	1.629241e-04	-8.275263e-06
2.763905	1.308949e-04	-2.263433e-05	2.642456e-04	-4.504535e-06
2.764905	6.947456e-05	-6.493610e-05	2.318708e-04	4.620087e-05
2.765906	-1.065214e-05	-1.741094e-05	1.397505e-04	3.061994e-05
2.766907	-7.641681e-05	-1.042087e-05	5.912763e-05	-9.327064e-06
2.767907	-7.121466e-05	-5.439110e-05	7.627098e-06	7.830751e-06
2.768908	-5.874751e-05	-4.769575e-05	-5.734156e-05	3.565409e-06
2.769908	-9.877409e-05	-1.147632e-06	-1.915538e-04	-4.138869e-05
2.770909	-1.508469e-04	4.188133e-05	-2.382663e-04	-6.530764e-05
2.771909	-6.429567e-05	2.567470e-05	-1.427998e-04	-3.577418e-05
2.772910	2.868765e-05	-2.945432e-05	-6.286656e-05	2.616093e-05
2.773910	-1.491156e-05	-2.446513e-05	-9.590436e-06	4.642777e-05
2.774911	-1.468552e-04	6.839414e-06	1.059088e-04	2.822838e-07
2.775911	-2.324352e-04	2.207161e-05	2.239779e-04	-4.310117e-05
2.776912	-1.060471e-04	5.324339e-05	2.036131e-04	-2.953042e-05
2.777912	4.851727e-05	6.407022e-05	1.171759e-04	-4.311722e-06
2.778913	1.931141e-04	4.548968e-05	8.583530e-05	-8.562244e-06
2.779913	2.642404e-04	4.150355e-05	4.370207e-05	-2.027891e-05
2.780914	7.503758e-05	3.169569e-05	-2.259805e-05	-1.333387e-05
2.781914	3.561485e-05	6.188828e-06	-1.046250e-04	1.023017e-05
2.782915	1.446780e-04	5.602624e-06	-1.766046e-04	2.116615e-05
2.783915	8.982704e-05	1.825114e-05	-1.502307e-04	4.541090e-05
2.784916	9.618151e-05	1.105980e-05	-9.285286e-05	4.629657e-05
2.785916	7.378601e-05	-1.049850e-05	-5.318174e-05	-1.410174e-05
2.786917	-4.890509e-05	-3.793926e-05	3.253539e-05	7.212075e-06
2.787918	-8.539123e-05	-3.101314e-05	1.299942e-04	7.912437e-05
2.788918	-1.569939e-04	5.478636e-06	1.343294e-04	8.572289e-05
2.789919	-2.411594e-04	-9.419915e-06	6.600625e-05	9.170766e-05
2.790919	-3.101839e-04	-3.441941e-05	2.899063e-05	8.201487e-05
2.791920	-2.743179e-04	-2.410651e-05	4.644212e-06	3.705964e-05
2.792920	3.162432e-05	-4.769921e-05	-3.012592e-05	-2.664413e-05
2.793921	2.736150e-04	-9.694619e-05	-9.224665e-05	-1.462451e-04
2.794921	3.006734e-04	-1.240170e-04	-1.525005e-04	-2.297312e-04
2.795922	1.689214e-04	-1.017488e-04	-1.632238e-04	-1.790012e-04
2.796922	-3.663713e-05	-3.863723e-05	-2.579966e-04	-6.756146e-05
2.797923	-3.150099e-05	1.761065e-06	-3.358126e-04	2.902098e-05
2.798923	-2.689250e-05	2.627007e-05	-2.366815e-04	6.577993e-05
2.799924	-8.552669e-05	7.075082e-05	-9.258294e-05	3.021126e-05
2.800924	6.969230e-05	1.310968e-04	3.645909e-05	2.579235e-05
2.801925	1.604011e-04	1.522960e-04	1.771758e-04	4.207739e-05
2.802925	5.737209e-05	7.691796e-05	3.716833e-04	-1.454723e-05
2.803926	-1.776569e-05	1.821615e-05	4.539676e-04	-3.996484e-05
2.804926	-5.730174e-05	5.617878e-05	3.175777e-04	6.889765e-06
2.805927	-4.464670e-05	6.874415e-05	2.131303e-04	2.321804e-05
2.806928	2.321926e-05	2.754086e-05	1.469489e-04	3.897493e-05
2.807928	6.637394e-05	-3.024244e-07	5.329798e-05	9.239001e-05
2.808929	7.055316e-05	-2.823825e-05	2.061078e-05	9.559918e-05
2.809929	2.801098e-05	-7.116132e-05	2.036400e-05	4.641042e-05
2.810930	-4.481519e-05	-8.312617e-05	3.197973e-05	8.062694e-05
2.811930	-8.693327e-05	-4.169011e-05	2.049784e-05	1.029037e-04
2.812931	-1.162982e-04	-2.187630e-05	-2.232920e-05	-5.847537e-05
2.813931	-1.979396e-04	-4.500548e-05	-3.824541e-05	-1.284159e-04
2.814932	-2.037201e-04	-5.297151e-05	-1.022354e-04	2.193978e-05
2.815932	-2.473643e-05	-3.070760e-05	-2.436058e-04	1.258364e-05
2.816933	1.269342e-04	2.917447e-05	-3.011863e-04	-1.806443e-04
2.817933	1.200334e-04	6.593914e-05	-2.401797e-04	-1.974189e-04
2.818934	8.924224e-05	4.358930e-05	-1.830425e-04	-3.187565e-05
2.819934	7.384148e-05	2.988613e-05	-1.479081e-04	4.807691e-05
2.820935	6.633624e-07	9.941561e-06	-4.010757e-05	-4.382055e-06
2.821935	-1.365416e-04	-5.156069e-06	1.027151e-04	-2.937846e-05
2.822936	-2.621928e-04	1.697566e-05	1.051510e-04	-4.164220e-06
2.823936	-8.342464e-05	8.130429e-06	2.141602e-05	-1.024545e-06
2.824937	3.063040e-04	-2.635166e-05	-2.914024e-06	-1.968046e-06
2.825938	3.300615e-04	-4.570394e-05	1.787028e-05	1.308877e-05
2.826938	1.617847e-04	-3.255531e-05	6.529774e-05	3.907398e-05
2.827939	8.654857e-05	-5.830395e-06	1.186381e-04	6.603973e-05
2.828939	1.159645e-05	-1.135688e-05	1.627939e-04	6.942047e-05
2.829940	9.284062e-05	-2.846673e-06	1.655198e-04	6.601572e-05
2.830940	9.727072e-05	-1.772971e-05	1.194271e-04	8.018060e-05
2.831941	-1.272271e-04	-7.305754e-05	9.346463e-05	5.705212e-05
2.832941	-2.787898e-04	-5.363796e-05	8.011046e-05	1.333748e-05
2.833942	-3.595947e-04	-8.732098e-06	6.123022e-05	3.544530e-05
2.834942	-3.990322e-04	1.817494e-05	2.282568e-05	1.336137e-05
2.835943	-2.395917e-04	5.807797e-05	-3.909314e-05	-7.107108e-05
2.836943	-1.092413e-05	6.626683e-05	-8.471275e-05	-6.470257e-05
2.837944	-7.550420e-07	6.538693e-05	-1.822092e-04	-2.742184e-05
2.838944	5.090729e-05	5.056449e-05	-2.807161e-04	-1.053191e-05
2.839945	3.218867e-04	1.107875e-05	-2.463175e-04	-3.430824e-05
2.840945	4.403211e-04	4.598743e-06	-1.832306e-04	-1.229793e-04
2.841946	3.766594e-04	-1.688292e-06	-1.198019e-04	-1.000663e-04
2.842946	1.626569e-04	-2.717918e-06	-2.087521e-05	1.059468e-05
2.843947	-8.080552e-05	9.946616e-06	5.242259e-05	3.584661e-05
2.844947	-9.030078e-05	-3.039407e-05	1.014747e-04	2.622492e-05
2.845948	-1.300709e-04	-7.180391e-05	3.872436e-06	1.616624e-05
2.846949	-1.345655e-04	-5.027044e-05	-2.125821e-04	-5.729517e-06
2.847949	-4.903385e-05	3.823283e-06	-1.979245e-04	3.033750e-06
2.848950	-2.457873e-06	3.593104e-05	-6.438254e-06	1.138569e-05
2.849950	1.170303e-04	2.141837e-05	6.853842e-05	-1.504113e-05
2.850951	-5.394790e-05	-2.728597e-07	1.402305e-04	-3.891405e-05
2.851951	-1.496729e-04	1.116080e-06	3.023326e-04	-3.814783e-05
2.852952	4.598013e-05	2.052271e-05	4.346643e-04	9.991687e-06
2.853952	-6.321154e-05	3.957158e-05	4.460456e-04	7.480215e-05
2.854953	-7.335396e-05	4.466426e-05	2.917640e-04	8.793661e-05
2.855953	7.403954e-05	2.211932e-05	1.275671e-04	8.643414e-05
2.856954	8.648451e-05	-8.490158e-06	5.098197e-05	1.168100e-04
2.857954	5.135762e-05	9.916215e-06	-2.538247e-05	1.193735e-04
2.858955	-1.336285e-04	2.889088e-05	-7.202238e-05	2.533112e-05
2.859955	-1.279442e-04	-1.903677e-05	-6.741719e-05	-2.831120e-05
2.860956	5.544636e-05	-7.921243e-05	-1.080492e-04	2.066925e-05
2.861956	-1.539610e-04	-8.666226e-05	-2.449017e-04	-1.031135e-05
2.862957	-5.005276e-04	-2.239075e-05	-3.532785e-04	-8.634383e-05
2.863957	-8.923100e-05	5.618833e-05	-2.998427e-04	-1.207997e-04
2.864958	7.333582e-04	4.244090e-05	-1.685758e-04	-1.116253e-04
2.865959	6.610417e-04	-5.701632e-05	-8.437069e-05	-3.572684e-05
2.866959	-5.172034e-07	-1.176931e-04	7.230796e-06	-1.550305e-05
2.867960	-2.829740e-04	-7.106981e-05	1.368389e-04	-5.000478e-05
2.868960	-2.780371e-04	-3.176662e-06	1.581758e-04	-6.062455e-05
2.869961	7.763639e-06	3.928284e-05	7.054734e-05	-7.261053e-05
2.870961	4.726589e-04	8.791834e-05	8.153657e-06	-5.533382e-05
2.871962	3.040419e-04	5.630685e-05	-9.677244e-06	-8.374406e-06
2.872962	-2.527246e-04	-2.368691e-05	1.884718e-05	3.910424e-05
2.873963	-3.109128e-04	-2.080196e-05	5.595478e-05	3.815461e-05
2.874963	-2.303420e-04	9.524214e-06	3.465460e-05	-7.568666e-06
2.875964	-3.339556e-04	4.787894e-05	-3.749764e-06	1.145189e-05
2.876964	-2.995461e-04	8.264570e-05	-2.266368e-05	5.297958e-05
2.877965	8.857937e-05	4.418559e-05	-5.821481e-05	5.847370e-05
2.878965	3.584579e-04	7.243952e-06	-9.879663e-05	8.397994e-05
2.879966	6.536887e-05	1.554721e-06	-9.042252e-05	8.927246e-05
2.880966	4.219406e-05	-2.628559e-05	-4.453637e-05	6.669649e-05
2.881967	1.234380e-04	-3.011523e-05	-1.175495e-05	5.305550e-05
2.882967	-2.490805e-04	-4.648670e-06	-4.280823e-07	2.009129e-05
2.883968	-9.284931e-05	-1.354441e-05	8.467487e-06	1.203320e-05
2.884968	1.641758e-04	-2.870656e-05	4.280535e-05	2.806741e-05
2.885969	-1.182655e-04	-8.401925e-06	7.622911e-05	-7.115780e-06
2.886970	9.630419e-05	8.883645e-07	3.617859e-05	-6.427838e-05
2.887970	3.978789e-04	-2.169618e-05	-9.480207e-06	-7.444743e-05
2.888971	1.467123e-04	-2.934819e-05	2.413362e-05	-1.776663e-05
2.889971	4.146293e-05	-1.921709e-05	4.677279e-05	-2.541246e-06
2.890972	-1.539771e-05	-3.954723e-05	2.763317e-05	-7.391025e-05
2.891972	-2.159051e-04	-5.638509e-05	5.799883e-05	-7.444296e-05
2.892973	-2.715675e-04	-4.506359e-06	1.029186e-04	-4.364856e-05
2.893973	-9.457106e-05	5.519720e-05	7.767468e-05	-7.397760e-05
2.894974	1.532382e-04	5.959268e-05	1.933155e-05	-5.024143e-05
2.895974	1.731330e-04	4.024314e-05	-3.036533e-05	5.305602e-06
2.896975	1.084012e-05	3.572186e-05	-4.853301e-05	1.030187e-05
2.897975	-1.830906e-04	1.615457e-05	-6.040102e-05	3.295933e-06
2.898976	-8.934071e-05	-3.129990e-05	-1.050964e-04	1.276514e-05
2.899976	1.446129e-04	7.576954e-06	-1.044468e-04	1.202939e-05
2.900977	1.119275e-04	5.620414e-05	-5.318511e-05	5.719422e-06
2.901977	-2.170350e-05	-2.622366e-05	-1.508639e-05	6.509311e-05
2.902978	-3.867695e-04	-6.658153e-05	1.264770e-06	1.419197e-04
2.903978	-2.954997e-04	-2.460703e-05	2.839353e-05	1.363256e-04
2.904979	4.801747e-04	-2.554969e-06	1.056550e-04	6.595546e-05
2.905980	4.691501e-04	2.657123e-05	1.154400e-04	1.280280e-05
2.906980	4.249408e-05	2.504124e-05	3.853314e-05	1.218826e-05
2.907981	-1.700748e-04	7.684590e-06	3.892064e-05	-5.850306e-05
2.908981	-5.811670e-04	3.343714e-05	6.079922e-05	-1.719955e-04
2.909982	-2.626256e-04	4.358524e-05	2.585949e-05	-1.294475e-04
2.910982	3.753194e-04	6.200971e-06	9.878276e-06	2.088722e-06
2.911983	3.188461e-04	-1.585740e-05	-4.229703e-06	7.391136e-05
